Sample,Time_s,IN 1 (Channel 1) -General purpose sensor,IN 1 (Channel 2) -General purpose sensor,IN 1 (Channel 3) -General purpose sensor,AUX 1 (Channel 1) -Trigger Transducer,Ramp Channel,Buffer Channel,Accelerometer Transducer,Accelerometer Transducer,Accelerometer Transducer,Accelerometer Transducer,Accelerometer Transducer,Accelerometer Transducer
0,0.000000,-7,102,121,67,21488,32767,16384,20468,0,0,12,-21846
1,0.000488,-18,94,96,66,21489,32767,16384,20468,0,0,12,-21846
2,0.000977,0,76,101,61,21490,32767,16384,20468,0,0,12,-21846
3,0.001465,3,53,87,62,21491,32767,16384,20468,0,0,12,-21846
4,0.001953,-3,37,45,66,21492,32767,16384,20468,0,0,12,-21846
5,0.002441,-5,23,14,63,21493,32767,16384,20468,0,0,12,-21846
6,0.002930,1,1,15,61,21494,32767,16384,20468,0,0,12,-21846
7,0.003418,6,6,27,63,21495,32767,16384,20468,0,0,12,-21846
8,0.003906,-9,8,5,70,21496,32767,16384,20456,12,0,12,-21846
9,0.004395,-12,5,-3,64,21497,32767,16384,20456,12,0,12,-21846
10,0.004883,-18,-28,-11,61,21498,32767,16384,20456,12,0,12,-21846
11,0.005371,-20,-46,-29,64,21499,32767,16384,20456,12,0,12,-21846
12,0.005859,-35,-55,-79,67,21500,32767,16384,20456,12,0,12,-21846
13,0.006348,-35,-75,-102,64,21501,32767,16384,20456,12,0,12,-21846
14,0.006836,-9,-85,-86,61,21502,32767,16384,20456,12,0,12,-21846
15,0.007324,-7,-83,-96,65,21503,32767,16384,20456,12,0,12,-21846
16,0.007812,-25,-94,-132,69,21504,32767,16384,20456,12,0,12,-21846
17,0.008301,-23,-110,-147,64,21505,32767,16384,20456,12,0,12,-21846
18,0.008789,-12,-133,-143,61,21506,32767,16384,20456,12,0,12,-21846
19,0.009277,-15,-130,-150,64,21507,32767,16384,20456,12,0,12,-21846
20,0.009766,-26,-117,-159,65,21508,32767,16384,20444,12,0,24,-21846
21,0.010254,-30,-115,-137,62,21509,32767,16384,20444,12,0,24,-21846
22,0.010742,-32,-111,-117,60,21510,32767,16384,20444,12,0,24,-21846
23,0.011230,-45,-92,-104,66,21511,32767,16384,20444,12,0,24,-21846
24,0.011719,-57,-57,-86,69,21512,32767,16384,20444,12,0,24,-21846
25,0.012207,-37,-36,-42,60,21513,32767,16384,20444,12,0,24,-21846
26,0.012695,-36,-24,-8,62,21514,32767,16384,20444,12,0,24,-21846
27,0.013184,-31,-13,-20,65,21515,32767,16384,20444,12,0,24,-21846
28,0.013672,-35,-8,-31,64,21516,32767,16384,20444,12,0,24,-21846
29,0.014160,-17,-3,-2,62,21517,32767,16384,20444,12,0,24,-21846
30,0.014648,-6,11,28,62,21518,32767,16384,20444,12,0,24,-21846
31,0.015137,-21,31,32,69,21519,32767,16384,20444,12,0,24,-21846
32,0.015625,-26,50,46,66,21520,32767,16384,20432,12,0,36,-21846
33,0.016113,-9,58,81,60,21521,32767,16384,20432,12,0,36,-21846
34,0.016602,-9,68,96,63,21522,32767,16384,20432,12,0,36,-21846
35,0.017090,-20,79,79,67,21523,32767,16384,20432,12,0,36,-21846
36,0.017578,-19,82,84,65,21524,32767,16384,20432,12,0,36,-21846
37,0.018066,-1,92,121,61,21525,32767,16384,20432,12,0,36,-21846
38,0.018555,3,107,135,62,21526,32767,16384,20432,12,0,36,-21846
39,0.019043,-5,119,122,68,21527,32767,16384,20432,12,0,36,-21846
40,0.019531,0,108,122,63,21528,32767,16384,20432,12,0,36,-21846
41,0.020020,21,95,131,61,21529,32767,16384,20432,12,0,36,-21846
42,0.020508,25,87,114,63,21530,32767,16384,20432,12,0,36,-21846
43,0.020996,13,80,80,65,21531,32767,16384,20432,12,0,36,-21846
44,0.021484,25,57,68,63,21532,32767,16384,20420,12,0,48,-21846
45,0.021973,42,33,55,60,21533,32767,16384,20420,12,0,48,-21846
46,0.022461,28,21,26,66,21534,32767,16384,20420,12,0,48,-21846
47,0.022949,7,20,1,67,21535,32767,16384,20420,12,0,48,-21846
48,0.023438,13,17,19,63,21536,32767,16384,20420,12,0,48,-21846
49,0.023926,9,4,28,61,21537,32767,16384,20420,12,0,48,-21846
50,0.024414,-7,6,9,65,21538,32767,16384,20420,12,0,48,-21846
51,0.024902,-18,1,-13,66,21539,32767,16384,20420,12,0,48,-21846
52,0.025391,-19,-23,-18,61,21540,32767,16384,20420,12,0,48,-21846
53,0.025879,-23,-52,-34,61,21541,32767,16384,20420,12,0,48,-21846
54,0.026367,-32,-60,-72,68,21542,32767,16384,20420,12,0,48,-21846
55,0.026855,-33,-72,-103,66,21543,32767,16384,20420,12,0,48,-21846
56,0.027344,-21,-96,-103,60,21544,32767,16384,20408,12,0,60,-21846
57,0.027832,-12,-112,-117,63,21545,32767,16384,20408,12,0,60,-21846
58,0.028320,-15,-123,-154,67,21546,32767,16384,20408,12,0,60,-21846
59,0.028809,-27,-138,-179,65,21547,32767,16384,20408,12,0,60,-21846
60,0.029297,-18,-148,-165,61,21548,32767,16384,20408,12,0,60,-21846
61,0.029785,-27,-141,-159,64,21549,32767,16384,20408,12,0,60,-21846
62,0.030273,-48,-120,-166,67,21550,32767,16384,20408,12,0,60,-21846
63,0.030762,-63,-113,-155,64,21551,32767,16384,20408,12,0,60,-21846
64,0.031250,-50,-99,-108,62,21552,32767,16384,20408,12,0,60,-21846
65,0.031738,-46,-74,-76,64,21553,32767,16384,20408,12,0,60,-21846
66,0.032227,-65,-44,-67,67,21554,32767,16384,20408,12,0,60,-21846
67,0.032715,-53,-26,-39,64,21555,32767,16384,20408,12,0,60,-21846
68,0.033203,-33,-25,-14,61,21556,32767,16384,20396,12,0,72,-21846
69,0.033691,-36,-18,-12,66,21557,32767,16384,20396,12,0,72,-21846
70,0.034180,-49,-2,-21,66,21558,32767,16384,20396,12,0,72,-21846
71,0.034668,-45,9,5,61,21559,32767,16384,20396,12,0,72,-21846
72,0.035156,-32,23,44,61,21560,32767,16384,20396,12,0,72,-21846
73,0.035645,-34,47,56,64,21561,32767,16384,20396,12,0,72,-21846
74,0.036133,-41,67,59,68,21562,32767,16384,20396,12,0,72,-21846
75,0.036621,-28,72,89,62,21563,32767,16384,20396,12,0,72,-21846
76,0.037109,-12,76,112,62,21564,32767,16384,20396,12,0,72,-21846
77,0.037598,-30,77,100,68,21565,32767,16384,20396,12,0,72,-21846
78,0.038086,-37,100,101,66,21566,32767,16384,20396,12,0,72,-21846
79,0.038574,-31,105,133,62,21567,32767,16384,20396,12,0,72,-21846
80,0.039062,-5,108,151,61,21568,32767,16384,20384,12,0,84,-21846
81,0.039551,2,110,128,68,21569,32767,16384,20384,12,0,84,-21846
82,0.040039,9,104,114,66,21570,32767,16384,20384,12,0,84,-21846
83,0.040527,43,89,123,61,21571,32767,16384,20384,12,0,84,-21846
84,0.041016,67,78,118,64,21572,32767,16384,20384,12,0,84,-21846
85,0.041504,73,68,77,66,21573,32767,16384,20384,12,0,84,-21846
86,0.041992,78,47,52,64,21574,32767,16384,20384,12,0,84,-21846
87,0.042480,89,24,49,62,21575,32767,16384,20384,12,0,84,-21846
88,0.042969,81,17,46,62,21576,32767,16384,20384,12,0,84,-21846
89,0.043457,67,25,26,69,21577,32767,16384,20384,12,0,84,-21846
90,0.043945,61,15,11,63,21578,32767,16384,20384,12,0,84,-21846
91,0.044434,69,-4,20,61,21579,32767,16384,20384,12,0,84,-21846
92,0.044922,55,-22,-8,65,21580,32767,16384,20372,12,0,96,-21846
93,0.045410,30,-39,-54,66,21581,32767,16384,20372,12,0,96,-21846
94,0.045898,11,-70,-88,62,21582,32767,16384,20372,12,0,96,-21846
95,0.046387,13,-100,-96,62,21583,32767,16384,20372,12,0,96,-21846
96,0.046875,9,-104,-118,65,21584,32767,16384,20372,12,0,96,-21846
97,0.047363,2,-101,-142,69,21585,32767,16384,20372,12,0,96,-21846
98,0.047852,4,-121,-145,61,21586,32767,16384,20372,12,0,96,-21846
99,0.048340,6,-137,-144,61,21587,32767,16384,20372,12,0,96,-21846
100,0.048828,-11,-139,-163,65,21588,32767,16384,20372,12,0,96,-21846
101,0.049316,-32,-123,-175,65,21589,32767,16384,20372,12,0,96,-21846
102,0.049805,-35,-117,-147,62,21590,32767,16384,20372,12,0,96,-21846
103,0.050293,-34,-94,-108,62,21591,32767,16384,20372,12,0,96,-21846
104,0.050781,-45,-80,-107,67,21592,32767,16384,20430,30,0,20,-21846
105,0.051270,-52,-59,-95,68,21593,32767,16384,20430,30,0,20,-21846
106,0.051758,-44,-46,-56,61,21594,32767,16384,20430,30,0,20,-21846
107,0.052246,-42,-32,-25,63,21595,32767,16384,20430,30,0,20,-21846
108,0.052734,-57,-11,-29,65,21596,32767,16384,20430,30,0,20,-21846
109,0.053223,-63,-11,-41,64,21597,32767,16384,20430,30,0,20,-21846
110,0.053711,-58,-26,-18,61,21598,32767,16384,20430,30,0,20,-21846
111,0.054199,-50,-16,4,63,21599,32767,16384,20430,30,0,20,-21846
112,0.054688,-61,15,-4,68,21600,32767,16384,20430,30,0,20,-21846
113,0.055176,-63,38,21,65,21601,32767,16384,20430,30,0,20,-21846
114,0.055664,-47,51,65,60,21602,32767,16384,20430,30,0,20,-21846
115,0.056152,-34,61,86,64,21603,32767,16384,20430,30,0,20,-21846
116,0.056641,-39,75,75,65,21604,32767,16384,20468,0,0,12,-21846
117,0.057129,-21,84,90,62,21605,32767,16384,20468,0,0,12,-21846
118,0.057617,12,94,132,61,21606,32767,16384,20468,0,0,12,-21846
119,0.058105,12,112,141,64,21607,32767,16384,20468,0,0,12,-21846
120,0.058594,5,132,137,69,21608,32767,16384,20468,0,0,12,-21846
121,0.059082,7,120,142,63,21609,32767,16384,20468,0,0,12,-21846
122,0.059570,19,108,146,61,21610,32767,16384,20468,0,0,12,-21846
123,0.060059,13,98,125,65,21611,32767,16384,20468,0,0,12,-21846
124,0.060547,3,88,85,65,21612,32767,16384,20468,0,0,12,-21846
125,0.061035,13,69,79,62,21613,32767,16384,20468,0,0,12,-21846
126,0.061523,30,46,66,61,21614,32767,16384,20468,0,0,12,-21846
127,0.062012,31,36,34,66,21615,32767,16384,20468,0,0,12,-21846
128,0.062500,36,37,15,68,21616,32767,16384,20468,0,0,12,-21846
129,0.062988,39,30,30,60,21617,32767,16384,20468,0,0,12,-21846
130,0.063477,34,22,41,62,21618,32767,16384,20468,0,0,12,-21846
131,0.063965,17,21,17,66,21619,32767,16384,20468,0,0,12,-21846
132,0.064453,0,14,-10,65,21620,32767,16384,20468,0,0,12,-21846
133,0.064941,9,-6,-8,61,21621,32767,16384,20468,0,0,12,-21846
134,0.065430,19,-26,-18,62,21622,32767,16384,20468,0,0,12,-21846
135,0.065918,6,-47,-60,69,21623,32767,16384,20468,0,0,12,-21846
136,0.066406,10,-63,-89,66,21624,32767,16384,20468,0,0,12,-21846
137,0.066895,21,-77,-89,61,21625,32767,16384,20468,0,0,12,-21846
138,0.067383,24,-85,-92,64,21626,32767,16384,20468,0,0,12,-21846
139,0.067871,-2,-104,-131,65,21627,32767,16384,20468,0,0,12,-21846
140,0.068359,-15,-131,-153,63,21628,32767,16384,20468,0,0,12,-21846
141,0.068848,-3,-135,-147,61,21629,32767,16384,20468,0,0,12,-21846
142,0.069336,-7,-128,-144,63,21630,32767,16384,20468,0,0,12,-21846
143,0.069824,-25,-110,-151,69,21631,32767,16384,20468,0,0,12,-21846
144,0.070312,-26,-102,-137,64,21632,32767,16384,20468,0,0,12,-21846
145,0.070801,-11,-91,-103,61,21633,32767,16384,20468,0,0,12,-21846
146,0.071289,-20,-65,-82,64,21634,32767,16384,20468,0,0,12,-21846
147,0.071777,-37,-40,-74,67,21635,32767,16384,20468,0,0,12,-21846
148,0.072266,-36,-26,-44,63,21636,32767,16384,20468,0,0,12,-21846
149,0.072754,-20,-20,-10,61,21637,32767,16384,20468,0,0,12,-21846
150,0.073242,-25,-16,-19,66,21638,32767,16384,20468,0,0,12,-21846
151,0.073730,-35,-3,-30,70,21639,32767,16384,20468,0,0,12,-21846
152,0.074219,-22,-2,-5,62,21640,32767,16384,20468,0,0,12,-21846
153,0.074707,-25,0,18,61,21641,32767,16384,20468,0,0,12,-21846
154,0.075195,-33,31,33,64,21642,32767,16384,20468,0,0,12,-21846
155,0.075684,-30,58,38,65,21643,32767,16384,20468,0,0,12,-21846
156,0.076172,-19,59,70,61,21644,32767,16384,20468,0,0,12,-21846
157,0.076660,-10,65,95,61,21645,32767,16384,20468,0,0,12,-21846
158,0.077148,-16,80,89,67,21646,32767,16384,20468,0,0,12,-21846
159,0.077637,-16,94,93,68,21647,32767,16384,20468,0,0,12,-21846
160,0.078125,3,107,132,61,21648,32767,16384,20468,0,0,12,-21846
161,0.078613,8,109,146,62,21649,32767,16384,20468,0,0,12,-21846
162,0.079102,0,114,121,66,21650,32767,16384,20468,0,0,12,-21846
163,0.079590,-4,107,108,64,21651,32767,16384,20468,0,0,12,-21846
164,0.080078,16,94,121,61,21652,32767,16384,20468,0,0,12,-21846
165,0.080566,19,83,115,63,21653,32767,16384,20468,0,0,12,-21846
166,0.081055,12,77,79,67,21654,32767,16384,20468,0,0,12,-21846
167,0.081543,7,52,51,63,21655,32767,16384,20468,0,0,12,-21846
168,0.082031,10,21,36,62,21656,32767,16384,20468,0,0,12,-21846
169,0.082520,6,8,24,63,21657,32767,16384,20468,0,0,12,-21846
170,0.083008,8,32,16,67,21658,32767,16384,20468,0,0,12,-21846
171,0.083496,8,31,23,63,21659,32767,16384,20468,0,0,12,-21846
172,0.083984,15,16,32,62,21660,32767,16384,20468,0,0,12,-21846
173,0.084473,11,8,13,66,21661,32767,16384,20468,0,0,12,-21846
174,0.084961,0,-6,-30,67,21662,32767,16384,20468,0,0,12,-21846
175,0.085449,1,-35,-51,62,21663,32767,16384,20468,0,0,12,-21846
176,0.085938,1,-67,-63,61,21664,32767,16384,20468,0,0,12,-21846
177,0.086426,-5,-80,-90,66,21665,32767,16384,20468,0,0,12,-21846
178,0.086914,-23,-81,-118,68,21666,32767,16384,20468,0,0,12,-21846
179,0.087402,-26,-102,-123,62,21667,32767,16384,20468,0,0,12,-21846
180,0.087891,-29,-119,-122,61,21668,32767,16384,20468,0,0,12,-21846
181,0.088379,-62,-130,-156,67,21669,32767,16384,20468,0,0,12,-21846
182,0.088867,-74,-126,-175,65,21670,32767,16384,20468,0,0,12,-21846
183,0.089355,-69,-124,-153,61,21671,32767,16384,20468,0,0,12,-21846
184,0.089844,-72,-124,-142,62,21672,32767,16384,20468,0,0,12,-21846
185,0.090332,-71,-101,-140,66,21673,32767,16384,20468,0,0,12,-21846
186,0.090820,-72,-90,-139,66,21674,32767,16384,20468,0,0,12,-21846
187,0.091309,-56,-72,-91,60,21675,32767,16384,20468,0,0,12,-21846
188,0.091797,-51,-53,-53,62,21676,32767,16384,20468,0,0,12,-21846
189,0.092285,-51,-19,-45,69,21677,32767,16384,20468,0,0,12,-21846
190,0.092773,-61,-16,-48,63,21678,32767,16384,20468,0,0,12,-21846
191,0.093262,-46,-22,-23,60,21679,32767,16384,20468,0,0,12,-21846
192,0.093750,-43,-14,-12,63,21680,32767,16384,20468,0,0,12,-21846
193,0.094238,-48,9,-9,68,21681,32767,16384,20468,0,0,12,-21846
194,0.094727,-40,29,16,64,21682,32767,16384,20468,0,0,12,-21846
195,0.095215,-26,40,53,60,21683,32767,16384,20468,0,0,12,-21846
196,0.095703,-19,59,73,65,21684,32767,16384,20468,0,0,12,-21846
197,0.096191,-30,69,65,67,21685,32767,16384,20468,0,0,12,-21846
198,0.096680,-24,70,74,62,21686,32767,16384,20468,0,0,12,-21846
199,0.097168,10,82,103,61,21687,32767,16384,20468,0,0,12,-21846
200,0.097656,20,107,118,65,21688,32767,16384,20468,0,0,12,-21846
201,0.098145,23,130,118,67,21689,32767,16384,20468,0,0,12,-21846
202,0.098633,47,139,145,61,21690,32767,16384,20468,0,0,12,-21846
203,0.099121,60,128,164,62,21691,32767,16384,20468,0,0,12,-21846
204,0.099609,53,121,138,67,21692,32767,16384,20468,0,0,12,-21846
205,0.100098,40,114,109,66,21693,32767,16384,20468,0,0,12,-21846
206,0.100586,42,96,110,62,21694,32767,16384,20468,0,0,12,-21846
207,0.101074,43,68,95,62,21695,32767,16384,20468,0,0,12,-21846
208,0.101562,25,46,49,68,21696,32767,16384,20468,0,0,12,-21846
209,0.102051,17,33,13,67,21697,32767,16384,20468,0,0,12,-21846
210,0.102539,31,21,24,60,21698,32767,16384,20468,0,0,12,-21846
211,0.103027,25,14,32,63,21699,32767,16384,20468,0,0,12,-21846
212,0.103516,10,21,14,68,21700,32767,16384,20468,0,0,12,-21846
213,0.104004,-1,16,-6,65,21701,32767,16384,20468,0,0,12,-21846
214,0.104492,8,-6,1,60,21702,32767,16384,20468,0,0,12,-21846
215,0.104980,13,-24,-14,62,21703,32767,16384,20468,0,0,12,-21846
216,0.105469,-2,-41,-66,69,21704,32767,16384,20468,0,0,12,-21846
217,0.105957,3,-57,-85,66,21705,32767,16384,20468,0,0,12,-21846
218,0.106445,4,-83,-88,60,21706,32767,16384,20468,0,0,12,-21846
219,0.106934,-1,-89,-101,64,21707,32767,16384,20468,0,0,12,-21846
220,0.107422,-20,-91,-137,67,21708,32767,16384,20468,0,0,12,-21846
221,0.107910,-19,-107,-149,63,21709,32767,16384,20468,0,0,12,-21846
222,0.108398,-12,-128,-149,61,21710,32767,16384,20468,0,0,12,-21846
223,0.108887,-14,-122,-149,64,21711,32767,16384,20468,0,0,12,-21846
224,0.109375,-46,-120,-174,70,21712,32767,16384,20468,0,0,12,-21846
225,0.109863,-43,-114,-158,64,21713,32767,16384,20468,0,0,12,-21846
226,0.110352,-15,-93,-110,59,21714,32767,16384,20468,0,0,12,-21846
227,0.110840,-16,-75,-101,66,21715,32767,16384,20468,0,0,12,-21846
228,0.111328,-21,-39,-80,65,21716,32767,16384,20468,0,0,12,-21846
229,0.111816,-19,-28,-46,62,21717,32767,16384,20468,0,0,12,-21846
230,0.112305,-10,-12,-11,60,21718,32767,16384,20468,0,0,12,-21846
231,0.112793,-22,-7,-13,67,21719,32767,16384,20468,0,0,12,-21846
232,0.113281,-30,-2,-29,68,21720,32767,16384,20468,0,0,12,-21846
233,0.113770,-20,-1,-4,61,21721,32767,16384,20468,0,0,12,-21846
234,0.114258,-14,9,20,63,21722,32767,16384,20468,0,0,12,-21846
235,0.114746,-26,36,24,66,21723,32767,16384,20468,0,0,12,-21846
236,0.115234,-29,58,38,65,21724,32767,16384,20468,0,0,12,-21846
237,0.115723,-20,62,68,61,21725,32767,16384,20468,0,0,12,-21846
238,0.116211,-17,61,86,62,21726,32767,16384,20468,0,0,12,-21846
239,0.116699,-31,70,73,69,21727,32767,16384,20468,0,0,12,-21846
240,0.117188,-24,85,82,66,21728,32767,16384,20468,0,0,12,-21846
241,0.117676,-10,95,118,61,21729,32767,16384,20468,0,0,12,-21846
242,0.118164,1,109,137,64,21730,32767,16384,20468,0,0,12,-21846
243,0.118652,-12,117,117,66,21731,32767,16384,20468,0,0,12,-21846
244,0.119141,-12,113,109,64,21732,32767,16384,20468,0,0,12,-21846
245,0.119629,11,96,125,60,21733,32767,16384,20468,0,0,12,-21846
246,0.120117,13,89,114,64,21734,32767,16384,20468,0,0,12,-21846
247,0.120605,6,86,81,66,21735,32767,16384,20468,0,0,12,-21846
248,0.121094,10,69,67,62,21736,32767,16384,20468,0,0,12,-21846
249,0.121582,15,37,52,62,21737,32767,16384,20468,0,0,12,-21846
250,0.122070,4,19,28,64,21738,32767,16384,20468,0,0,12,-21846
251,0.122559,-6,24,5,65,21739,32767,16384,20468,0,0,12,-21846
252,0.123047,-10,21,14,62,21740,32767,16384,20468,0,0,12,-21846
253,0.123535,-14,3,23,61,21741,32767,16384,20468,0,0,12,-21846
254,0.124023,-14,3,11,66,21742,32767,16384,20468,0,0,12,-21846
255,0.124512,-30,-4,-25,69,21743,32767,16384,20468,0,0,12,-21846
256,0.125000,-21,-30,-33,62,21744,32767,16384,20468,0,0,12,-21846
257,0.125488,-9,-55,-41,61,21745,32767,16384,20468,0,0,12,-21846
258,0.125977,-20,-71,-86,67,21746,32767,16384,20468,0,0,12,-21846
259,0.126465,-40,-87,-123,65,21747,32767,16384,20468,0,0,12,-21846
260,0.126953,-31,-98,-114,62,21748,32767,16384,20468,0,0,12,-21846
261,0.127441,-27,-110,-116,61,21749,32767,16384,20468,0,0,12,-21846
262,0.127930,-37,-114,-149,68,21750,32767,16384,20468,0,0,12,-21846
263,0.128418,-42,-122,-174,66,21751,32767,16384,20468,0,0,12,-21846
264,0.128906,-32,-129,-155,60,21752,32767,16384,20468,0,0,12,-21846
265,0.129395,-31,-126,-146,62,21753,32767,16384,20468,0,0,12,-21846
266,0.129883,-50,-117,-152,67,21754,32767,16384,20468,0,0,12,-21846
267,0.130371,-54,-106,-149,65,21755,32767,16384,20468,0,0,12,-21846
268,0.130859,-29,-91,-106,60,21756,32767,16384,20468,0,0,12,-21846
269,0.131348,-10,-60,-69,63,21757,32767,16384,20468,0,0,12,-21846
270,0.131836,-3,-24,-58,68,21758,32767,16384,20468,0,0,12,-21846
271,0.132324,-10,-12,-43,63,21759,32767,16384,20468,0,0,12,-21846
272,0.132812,5,-14,-17,62,21760,32767,16384,20468,0,0,12,-21846
273,0.133301,1,-7,-13,65,21761,32767,16384,20468,0,0,12,-21846
274,0.133789,-17,7,-18,67,21762,32767,16384,20468,0,0,12,-21846
275,0.134277,-22,12,1,64,21763,32767,16384,20468,0,0,12,-21846
276,0.134766,-19,27,37,61,21764,32767,16384,20468,0,0,12,-21846
277,0.135254,-22,48,51,65,21765,32767,16384,20468,0,0,12,-21846
278,0.135742,-29,68,50,68,21766,32767,16384,20468,0,0,12,-21846
279,0.136230,-23,66,67,62,21767,32767,16384,20468,0,0,12,-21846
280,0.136719,-12,64,85,61,21768,32767,16384,20468,0,0,12,-21846
281,0.137207,-23,74,84,65,21769,32767,16384,20468,0,0,12,-21846
282,0.137695,-28,98,89,67,21770,32767,16384,20468,0,0,12,-21846
283,0.138184,-22,108,121,63,21771,32767,16384,20468,0,0,12,-21846
284,0.138672,-19,104,137,62,21772,32767,16384,20468,0,0,12,-21846
285,0.139160,-20,108,125,66,21773,32767,16384,20468,0,0,12,-21846
286,0.139648,-30,102,99,66,21774,32767,16384,20468,0,0,12,-21846
287,0.140137,-22,79,96,62,21775,32767,16384,20468,0,0,12,-21846
288,0.140625,-17,59,88,62,21776,32767,16384,20468,0,0,12,-21846
289,0.141113,-22,45,51,67,21777,32767,16384,20468,0,0,12,-21846
290,0.141602,-26,32,22,67,21778,32767,16384,20468,0,0,12,-21846
291,0.142090,-19,9,20,61,21779,32767,16384,20468,0,0,12,-21846
292,0.142578,-22,5,17,62,21780,32767,16384,20468,0,0,12,-21846
293,0.143066,-23,17,2,67,21781,32767,16384,20468,0,0,12,-21846
294,0.143555,-22,14,-4,65,21782,32767,16384,20468,0,0,12,-21846
295,0.144043,-18,-10,-3,61,21783,32767,16384,20468,0,0,12,-21846
296,0.144531,-8,-18,-14,64,21784,32767,16384,20468,0,0,12,-21846
297,0.145020,-16,-28,-57,68,21785,32767,16384,20468,0,0,12,-21846
298,0.145508,-12,-47,-76,64,21786,32767,16384,20468,0,0,12,-21846
299,0.145996,-1,-75,-82,60,21787,32767,16384,20468,0,0,12,-21846
300,0.146484,-11,-85,-108,65,21788,32767,16384,20468,0,0,12,-21846
301,0.146973,-38,-93,-135,68,21789,32767,16384,20468,0,0,12,-21846
302,0.147461,-48,-115,-149,63,21790,32767,16384,20468,0,0,12,-21846
303,0.147949,-39,-129,-153,60,21791,32767,16384,20468,0,0,12,-21846
304,0.148438,-42,-135,-172,64,21792,32767,16384,20468,0,0,12,-21846
305,0.148926,-43,-120,-179,68,21793,32767,16384,20468,0,0,12,-21846
306,0.149414,-35,-116,-160,61,21794,32767,16384,20468,0,0,12,-21846
307,0.149902,-20,-111,-134,61,21795,32767,16384,20468,0,0,12,-21846
308,0.150391,-31,-104,-139,65,21796,32767,16384,20468,0,0,12,-21846
309,0.150879,-46,-86,-132,66,21797,32767,16384,20468,0,0,12,-21846
310,0.151367,-38,-68,-90,63,21798,32767,16384,20468,0,0,12,-21846
311,0.151855,-43,-52,-55,61,21799,32767,16384,20468,0,0,12,-21846
312,0.152344,-56,-37,-52,68,21800,32767,16384,20468,0,0,12,-21846
313,0.152832,-61,-27,-62,66,21801,32767,16384,20468,0,0,12,-21846
314,0.153320,-46,-23,-40,61,21802,32767,16384,20468,0,0,12,-21846
315,0.153809,-29,-8,-12,62,21803,32767,16384,20468,0,0,12,-21846
316,0.154297,-32,18,1,68,21804,32767,16384,20468,0,0,12,-21846
317,0.154785,-27,37,17,65,21805,32767,16384,20468,0,0,12,-21846
318,0.155273,-12,48,52,60,21806,32767,16384,20468,0,0,12,-21846
319,0.155762,-8,53,72,61,21807,32767,16384,20468,0,0,12,-21846
320,0.156250,-9,72,63,70,21808,32767,16384,20468,0,0,12,-21846
321,0.156738,13,85,74,65,21809,32767,16384,20468,0,0,12,-21846
322,0.157227,41,86,108,60,21810,32767,16384,20468,0,0,12,-21846
323,0.157715,56,101,126,64,21811,32767,16384,20468,0,0,12,-21846
324,0.158203,67,132,129,65,21812,32767,16384,20468,0,0,12,-21846
325,0.158691,86,135,136,63,21813,32767,16384,20468,0,0,12,-21846
326,0.159180,102,122,148,62,21814,32767,16384,20468,0,0,12,-21846
327,0.159668,94,106,132,64,21815,32767,16384,20468,0,0,12,-21846
328,0.160156,73,104,102,69,21816,32767,16384,20468,0,0,12,-21846
329,0.160645,66,90,95,63,21817,32767,16384,20468,0,0,12,-21846
330,0.161133,64,62,83,60,21818,32767,16384,20468,0,0,12,-21846
331,0.161621,51,43,47,65,21819,32767,16384,20468,0,0,12,-21846
332,0.162109,45,36,18,64,21820,32767,16384,20468,0,0,12,-21846
333,0.162598,44,29,21,62,21821,32767,16384,20468,0,0,12,-21846
334,0.163086,49,28,36,61,21822,32767,16384,20468,0,0,12,-21846
335,0.163574,42,28,22,67,21823,32767,16384,20468,0,0,12,-21846
336,0.164062,27,18,-6,68,21824,32767,16384,20468,0,0,12,-21846
337,0.164551,18,-14,-20,60,21825,32767,16384,20468,0,0,12,-21846
338,0.165039,19,-44,-34,62,21826,32767,16384,20468,0,0,12,-21846
339,0.165527,9,-57,-81,66,21827,32767,16384,20468,0,0,12,-21846
340,0.166016,3,-70,-107,64,21828,32767,16384,20468,0,0,12,-21846
341,0.166504,10,-90,-107,62,21829,32767,16384,20468,0,0,12,-21846
342,0.166992,4,-103,-115,62,21830,32767,16384,20468,0,0,12,-21846
343,0.167480,-16,-110,-150,69,21831,32767,16384,20468,0,0,12,-21846
344,0.167969,-21,-117,-170,66,21832,32767,16384,20468,0,0,12,-21846
345,0.168457,-6,-123,-157,61,21833,32767,16384,20468,0,0,12,-21846
346,0.168945,-6,-119,-143,63,21834,32767,16384,20468,0,0,12,-21846
347,0.169434,-16,-104,-147,66,21835,32767,16384,20468,0,0,12,-21846
348,0.169922,-13,-85,-132,63,21836,32767,16384,20468,0,0,12,-21846
349,0.170410,-10,-81,-103,61,21837,32767,16384,20468,0,0,12,-21846
350,0.170898,-25,-63,-80,65,21838,32767,16384,20468,0,0,12,-21846
351,0.171387,-45,-28,-68,70,21839,32767,16384,20468,0,0,12,-21846
352,0.171875,-33,-10,-33,63,21840,32767,16384,20468,0,0,12,-21846
353,0.172363,-35,-12,-9,60,21841,32767,16384,20468,0,0,12,-21846
354,0.172852,-41,-18,-18,65,21842,32767,16384,20468,0,0,12,-21846
355,0.173340,-44,4,-30,64,21843,32767,16384,20468,0,0,12,-21846
356,0.173828,-30,15,-5,63,21844,32767,16384,20468,0,0,12,-21846
357,0.174316,-16,18,27,61,21845,32767,16384,20468,0,0,12,-21846
358,0.174805,-16,41,41,66,21846,32767,16384,20468,0,0,12,-21846
359,0.175293,-26,65,46,69,21847,32767,16384,20468,0,0,12,-21846
360,0.175781,-16,71,71,61,21848,32767,16384,20468,0,0,12,-21846
361,0.176270,-4,72,95,61,21849,32767,16384,20468,0,0,12,-21846
362,0.176758,-11,82,86,65,21850,32767,16384,20468,0,0,12,-21846
363,0.177246,-14,98,89,64,21851,32767,16384,20468,0,0,12,-21846
364,0.177734,-4,106,118,62,21852,32767,16384,20468,0,0,12,-21846
365,0.178223,3,112,135,62,21853,32767,16384,20468,0,0,12,-21846
366,0.178711,-8,114,123,68,21854,32767,16384,20468,0,0,12,-21846
367,0.179199,-28,103,94,66,21855,32767,16384,20468,0,0,12,-21846
368,0.179688,-13,83,102,60,21856,32767,16384,20468,0,0,12,-21846
369,0.180176,1,79,103,63,21857,32767,16384,20468,0,0,12,-21846
370,0.180664,-9,65,64,64,21858,32767,16384,20468,0,0,12,-21846
371,0.181152,-10,43,32,63,21859,32767,16384,20468,0,0,12,-21846
372,0.181641,0,17,24,60,21860,32767,16384,20468,0,0,12,-21846
373,0.182129,0,6,18,64,21861,32767,16384,20468,0,0,12,-21846
374,0.182617,-8,20,6,70,21862,32767,16384,20468,0,0,12,-21846
375,0.183105,-15,15,0,65,21863,32767,16384,20468,0,0,12,-21846
376,0.183594,3,7,11,61,21864,32767,16384,20468,0,0,12,-21846
377,0.184082,0,-6,-6,64,21865,32767,16384,20468,0,0,12,-21846
378,0.184570,-11,-18,-46,65,21866,32767,16384,20468,0,0,12,-21846
379,0.185059,-10,-43,-68,63,21867,32767,16384,20468,0,0,12,-21846
380,0.185547,-18,-75,-84,61,21868,32767,16384,20468,0,0,12,-21846
381,0.186035,-17,-89,-105,65,21869,32767,16384,20468,0,0,12,-21846
382,0.186523,-30,-91,-136,68,21870,32767,16384,20468,0,0,12,-21846
383,0.187012,-25,-101,-134,62,21871,32767,16384,20468,0,0,12,-21846
384,0.187500,-16,-112,-130,61,21872,32767,16384,20468,0,0,12,-21846
385,0.187988,-24,-119,-154,65,21873,32767,16384,20468,0,0,12,-21846
386,0.188477,-41,-118,-184,65,21874,32767,16384,20468,0,0,12,-21846
387,0.188965,-36,-122,-161,60,21875,32767,16384,20468,0,0,12,-21846
388,0.189453,-26,-119,-138,60,21876,32767,16384,20468,0,0,12,-21846
389,0.189941,-38,-103,-143,68,21877,32767,16384,20468,0,0,12,-21846
390,0.190430,-47,-84,-143,66,21878,32767,16384,20468,0,0,12,-21846
391,0.190918,-34,-68,-96,60,21879,32767,16384,20468,0,0,12,-21846
392,0.191406,-30,-48,-54,63,21880,32767,16384,20468,0,0,12,-21846
393,0.191895,-37,-19,-42,65,21881,32767,16384,20468,0,0,12,-21846
394,0.192383,-36,-1,-39,66,21882,32767,16384,20468,0,0,12,-21846
395,0.192871,-23,-10,-19,62,21883,32767,16384,20468,0,0,12,-21846
396,0.193359,-12,-3,1,62,21884,32767,16384,20468,0,0,12,-21846
397,0.193848,-20,19,-3,67,21885,32767,16384,20468,0,0,12,-21846
398,0.194336,-23,39,13,64,21886,32767,16384,20468,0,0,12,-21846
399,0.194824,-10,49,55,61,21887,32767,16384,20468,0,0,12,-21846
400,0.195312,-8,66,77,64,21888,32767,16384,20468,0,0,12,-21846
401,0.195801,-17,86,76,67,21889,32767,16384,20468,0,0,12,-21846
402,0.196289,-15,93,82,65,21890,32767,16384,20468,0,0,12,-21846
403,0.196777,0,90,106,61,21891,32767,16384,20468,0,0,12,-21846
404,0.197266,2,96,116,65,21892,32767,16384,20468,0,0,12,-21846
405,0.197754,-10,115,106,68,21893,32767,16384,20468,0,0,12,-21846
406,0.198242,2,122,124,63,21894,32767,16384,20468,0,0,12,-21846
407,0.198730,6,105,128,61,21895,32767,16384,20468,0,0,12,-21846
408,0.199219,2,98,113,64,21896,32767,16384,20468,0,0,12,-21846
409,0.199707,-16,89,76,67,21897,32767,16384,20468,0,0,12,-21846
410,0.200195,-2,81,81,63,21898,32767,16384,20468,0,0,12,-21846
411,0.200684,6,53,77,62,21899,32767,16384,20468,0,0,12,-21846
412,0.201172,5,39,40,66,21900,32767,16384,20468,0,0,12,-21846
413,0.201660,-1,27,4,65,21901,32767,16384,20468,0,0,12,-21846
414,0.202148,12,14,9,63,21902,32767,16384,20468,0,0,12,-21846
415,0.202637,16,16,24,61,21903,32767,16384,20468,0,0,12,-21846
416,0.203125,7,22,11,67,21904,32767,16384,20468,0,0,12,-21846
417,0.203613,-7,12,-7,67,21905,32767,16384,20468,0,0,12,-21846
418,0.204102,3,-10,-4,61,21906,32767,16384,20468,0,0,12,-21846
419,0.204590,12,-31,-15,63,21907,32767,16384,20468,0,0,12,-21846
420,0.205078,-5,-43,-61,67,21908,32767,16384,20468,0,0,12,-21846
421,0.205566,-12,-56,-93,65,21909,32767,16384,20468,0,0,12,-21846
422,0.206055,-5,-80,-99,61,21910,32767,16384,20468,0,0,12,-21846
423,0.206543,-6,-94,-113,62,21911,32767,16384,20468,0,0,12,-21846
424,0.207031,-33,-102,-146,66,21912,32767,16384,20468,0,0,12,-21846
425,0.207520,-35,-115,-165,65,21913,32767,16384,20468,0,0,12,-21846
426,0.208008,-20,-131,-160,60,21914,32767,16384,20468,0,0,12,-21846
427,0.208496,-21,-131,-163,64,21915,32767,16384,20468,0,0,12,-21846
428,0.208984,-33,-113,-172,67,21916,32767,16384,20468,0,0,12,-21846
429,0.209473,-36,-113,-166,64,21917,32767,16384,20468,0,0,12,-21846
430,0.209961,-36,-119,-142,63,21918,32767,16384,20468,0,0,12,-21846
431,0.210449,-39,-91,-122,64,21919,32767,16384,20468,0,0,12,-21846
432,0.210938,-46,-58,-104,68,21920,32767,16384,20468,0,0,12,-21846
433,0.211426,-36,-33,-64,63,21921,32767,16384,20468,0,0,12,-21846
434,0.211914,-23,-19,-23,61,21922,32767,16384,20468,0,0,12,-21846
435,0.212402,-30,-9,-21,66,21923,32767,16384,20468,0,0,12,-21846
436,0.212891,-42,-5,-40,66,21924,32767,16384,20468,0,0,12,-21846
437,0.213379,-37,0,-23,63,21925,32767,16384,20468,0,0,12,-21846
438,0.213867,-24,6,7,62,21926,32767,16384,20468,0,0,12,-21846
439,0.214355,-30,29,18,66,21927,32767,16384,20468,0,0,12,-21846
440,0.214844,-34,57,32,68,21928,32767,16384,20468,0,0,12,-21846
441,0.215332,-23,62,67,60,21929,32767,16384,20468,0,0,12,-21846
442,0.215820,-28,60,82,62,21930,32767,16384,20468,0,0,12,-21846
443,0.216309,-29,72,73,67,21931,32767,16384,20468,0,0,12,-21846
444,0.216797,-21,77,58,64,21932,32767,16384,20468,0,0,12,-21846
445,0.217285,-1,82,92,61,21933,32767,16384,20468,0,0,12,-21846
446,0.217773,8,97,122,62,21934,32767,16384,20468,0,0,12,-21846
447,0.218262,3,112,114,70,21935,32767,16384,20468,0,0,12,-21846
448,0.218750,8,113,108,67,21936,32767,16384,20468,0,0,12,-21846
449,0.219238,28,100,121,60,21937,32767,16384,20468,0,0,12,-21846
450,0.219727,35,87,112,63,21938,32767,16384,20468,0,0,12,-21846
451,0.220215,31,85,82,66,21939,32767,16384,20468,0,0,12,-21846
452,0.220703,22,64,56,64,21940,32767,16384,20468,0,0,12,-21846
453,0.221191,28,41,50,61,21941,32767,16384,20468,0,0,12,-21846
454,0.221680,23,18,22,64,21942,32767,16384,20468,0,0,12,-21846
455,0.222168,1,18,-2,69,21943,32767,16384,20468,0,0,12,-21846
456,0.222656,2,18,-1,64,21944,32767,16384,20468,0,0,12,-21846
457,0.223145,20,10,14,60,21945,32767,16384,20468,0,0,12,-21846
458,0.223633,16,6,3,65,21946,32767,16384,20468,0,0,12,-21846
459,0.224121,-2,2,-29,66,21947,32767,16384,20468,0,0,12,-21846
460,0.224609,5,-13,-34,63,21948,32767,16384,20468,0,0,12,-21846
461,0.225098,8,-48,-47,62,21949,32767,16384,20468,0,0,12,-21846
462,0.225586,-5,-70,-83,65,21950,32767,16384,20468,0,0,12,-21846
463,0.226074,-18,-76,-123,69,21951,32767,16384,20468,0,0,12,-21846
464,0.226562,-7,-79,-113,62,21952,32767,16384,20468,0,0,12,-21846
465,0.227051,-1,-99,-114,61,21953,32767,16384,20468,0,0,12,-21846
466,0.227539,-17,-111,-147,65,21954,32767,16384,20468,0,0,12,-21846
467,0.228027,-38,-129,-184,65,21955,32767,16384,20468,0,0,12,-21846
468,0.228516,-28,-133,-168,61,21956,32767,16384,20468,0,0,12,-21846
469,0.229004,-19,-127,-151,61,21957,32767,16384,20468,0,0,12,-21846
470,0.229492,-29,-108,-156,68,21958,32767,16384,20468,0,0,12,-21846
471,0.229980,-34,-95,-148,67,21959,32767,16384,20468,0,0,12,-21846
472,0.230469,-24,-88,-110,61,21960,32767,16384,20468,0,0,12,-21846
473,0.230957,-22,-66,-80,63,21961,32767,16384,20468,0,0,12,-21846
474,0.231445,-33,-36,-73,66,21962,32767,16384,20468,0,0,12,-21846
475,0.231934,-45,-20,-56,63,21963,32767,16384,20468,0,0,12,-21846
476,0.232422,-34,-24,-32,61,21964,32767,16384,20468,0,0,12,-21846
477,0.232910,-37,-25,-24,62,21965,32767,16384,20468,0,0,12,-21846
478,0.233398,-58,-7,-36,70,21966,32767,16384,20468,0,0,12,-21846
479,0.233887,-53,4,-18,65,21967,32767,16384,20468,0,0,12,-21846
480,0.234375,-45,12,20,60,21968,32767,16384,20468,0,0,12,-21846
481,0.234863,-38,39,44,64,21969,32767,16384,20468,0,0,12,-21846
482,0.235352,-37,62,45,67,21970,32767,16384,20468,0,0,12,-21846
483,0.235840,-25,67,60,64,21971,32767,16384,20468,0,0,12,-21846
484,0.236328,-3,66,83,61,21972,32767,16384,20468,0,0,12,-21846
485,0.236816,2,81,91,66,21973,32767,16384,20468,0,0,12,-21846
486,0.237305,0,108,93,68,21974,32767,16384,20468,0,0,12,-21846
487,0.237793,14,118,122,63,21975,32767,16384,20468,0,0,12,-21846
488,0.238281,33,121,150,62,21976,32767,16384,20468,0,0,12,-21846
489,0.238770,32,119,138,65,21977,32767,16384,20468,0,0,12,-21846
490,0.239258,18,116,109,64,21978,32767,16384,20468,0,0,12,-21846
491,0.239746,12,93,103,63,21979,32767,16384,20468,0,0,12,-21846
492,0.240234,11,69,93,61,21980,32767,16384,20468,0,0,12,-21846
493,0.240723,18,61,62,67,21981,32767,16384,20468,0,0,12,-21846
494,0.241211,3,38,24,67,21982,32767,16384,20468,0,0,12,-21846
495,0.241699,11,12,17,60,21983,32767,16384,20468,0,0,12,-21846
496,0.242188,13,11,21,61,21984,32767,16384,20468,0,0,12,-21846
497,0.242676,-8,17,8,66,21985,32767,16384,20468,0,0,12,-21846
498,0.243164,-17,12,-5,64,21986,32767,16384,20468,0,0,12,-21846
499,0.243652,-3,-2,2,61,21987,32767,16384,20468,0,0,12,-21846
500,0.244141,2,-15,-11,62,21988,32767,16384,20468,0,0,12,-21846
501,0.244629,-12,-32,-57,67,21989,32767,16384,20468,0,0,12,-21846
502,0.245117,-17,-53,-82,64,21990,32767,16384,20468,0,0,12,-21846
503,0.245605,-3,-75,-90,60,21991,32767,16384,20468,0,0,12,-21846
504,0.246094,3,-81,-102,64,21992,32767,16384,20468,0,0,12,-21846
505,0.246582,-12,-84,-132,67,21993,32767,16384,20468,0,0,12,-21846
506,0.247070,0,-94,-140,65,21994,32767,16384,20468,0,0,12,-21846
507,0.247559,30,-110,-136,61,21995,32767,16384,20468,0,0,12,-21846
508,0.248047,33,-119,-149,65,21996,32767,16384,20468,0,0,12,-21846
509,0.248535,20,-110,-166,67,21997,32767,16384,20468,0,0,12,-21846
510,0.249023,16,-106,-156,62,21998,32767,16384,20468,0,0,12,-21846
511,0.249512,16,-105,-127,61,21999,32767,16384,20468,0,0,12,-21846
512,0.250000,1,-94,-125,64,22000,32767,16384,20468,0,0,12,-21846
513,0.250488,-14,-72,-123,68,22001,32767,16384,20468,0,0,12,-21846
514,0.250977,-3,-49,-81,62,22002,32767,16384,20468,0,0,12,-21846
515,0.251465,7,-32,-41,60,22003,32767,16384,20468,0,0,12,-21846
516,0.251953,-6,-17,-38,67,22004,32767,16384,20468,0,0,12,-21846
517,0.252441,-24,-10,-48,67,22005,32767,16384,20468,0,0,12,-21846
518,0.252930,-20,-9,-26,61,22006,32767,16384,20468,0,0,12,-21846
519,0.253418,-32,-17,-13,62,22007,32767,16384,20468,0,0,12,-21846
520,0.253906,-35,8,-4,66,22008,32767,16384,20468,0,0,12,-21846
521,0.254395,-40,32,1,67,22009,32767,16384,20468,0,0,12,-21846
522,0.254883,-27,42,44,61,22010,32767,16384,20468,0,0,12,-21846
523,0.255371,-14,61,75,62,22011,32767,16384,20468,0,0,12,-21846
524,0.255859,-21,76,68,67,22012,32767,16384,20468,0,0,12,-21846
525,0.256348,-21,77,68,65,22013,32767,16384,20468,0,0,12,-21846
526,0.256836,-11,80,94,60,22014,32767,16384,20468,0,0,12,-21846
527,0.257324,-7,91,118,62,22015,32767,16384,20468,0,0,12,-21846
528,0.257812,-35,107,106,68,22016,32767,16384,20468,0,0,12,-21846
529,0.258301,-36,111,105,65,22017,32767,16384,20468,0,0,12,-21846
530,0.258789,-15,96,118,58,22018,32767,16384,20468,0,0,12,-21846
531,0.259277,-10,90,109,64,22019,32767,16384,20468,0,0,12,-21846
532,0.259766,-29,82,76,67,22020,32767,16384,20468,0,0,12,-21846
533,0.260254,-34,65,57,62,22021,32767,16384,20468,0,0,12,-21846
534,0.260742,-13,43,57,61,22022,32767,16384,20468,0,0,12,-21846
535,0.261230,-12,18,20,64,22023,32767,16384,20468,0,0,12,-21846
536,0.261719,-21,8,-14,68,22024,32767,16384,20468,0,0,12,-21846
537,0.262207,-18,2,-7,63,22025,32767,16384,20468,0,0,12,-21846
538,0.262695,-13,-4,6,62,22026,32767,16384,20468,0,0,12,-21846
539,0.263184,-12,2,1,66,22027,32767,16384,20468,0,0,12,-21846
540,0.263672,-17,6,-22,66,22028,32767,16384,20468,0,0,12,-21846
541,0.264160,7,-11,-22,63,22029,32767,16384,20468,0,0,12,-21846
542,0.264648,40,-32,-31,61,22030,32767,16384,20468,0,0,12,-21846
543,0.265137,39,-50,-76,66,22031,32767,16384,20468,0,0,12,-21846
544,0.265625,32,-73,-119,68,22032,32767,16384,20468,0,0,12,-21846
545,0.266113,37,-88,-120,62,22033,32767,16384,20468,0,0,12,-21846
546,0.266602,30,-105,-123,63,22034,32767,16384,20468,0,0,12,-21846
547,0.267090,7,-117,-157,67,22035,32767,16384,20468,0,0,12,-21846
548,0.267578,-8,-125,-179,66,22036,32767,16384,20468,0,0,12,-21846
549,0.268066,0,-134,-170,61,22037,32767,16384,20468,0,0,12,-21846
550,0.268555,0,-136,-163,62,22038,32767,16384,20468,0,0,12,-21846
551,0.269043,-11,-119,-164,66,22039,32767,16384,20468,0,0,12,-21846
552,0.269531,-16,-103,-159,64,22040,32767,16384,20468,0,0,12,-21846
553,0.270020,-17,-101,-133,61,22041,32767,16384,20468,0,0,12,-21846
554,0.270508,-12,-77,-99,64,22042,32767,16384,20468,0,0,12,-21846
555,0.270996,-7,-34,-75,66,22043,32767,16384,20468,0,0,12,-21846
556,0.271484,-6,-13,-49,63,22044,32767,16384,20468,0,0,12,-21846
557,0.271973,-2,-14,-24,60,22045,32767,16384,20468,0,0,12,-21846
558,0.272461,2,-10,-18,63,22046,32767,16384,20468,0,0,12,-21846
559,0.272949,-28,-4,-37,69,22047,32767,16384,20468,0,0,12,-21846
560,0.273438,-35,-3,-20,64,22048,32767,16384,20468,0,0,12,-21846
561,0.273926,-18,11,12,60,22049,32767,16384,20468,0,0,12,-21846
562,0.274414,-20,31,33,65,22050,32767,16384,20468,0,0,12,-21846
563,0.274902,-26,61,43,65,22051,32767,16384,20468,0,0,12,-21846
564,0.275391,-22,70,62,63,22052,32767,16384,20468,0,0,12,-21846
565,0.275879,-9,72,86,62,22053,32767,16384,20468,0,0,12,-21846
566,0.276367,-14,78,79,65,22054,32767,16384,20468,0,0,12,-21846
567,0.276855,-23,91,70,69,22055,32767,16384,20468,0,0,12,-21846
568,0.277344,-12,102,103,62,22056,32767,16384,20468,0,0,12,-21846
569,0.277832,1,111,130,61,22057,32767,16384,20468,0,0,12,-21846
570,0.278320,-11,116,118,66,22058,32767,16384,20468,0,0,12,-21846
571,0.278809,-11,121,112,64,22059,32767,16384,20468,0,0,12,-21846
572,0.279297,6,100,112,62,22060,32767,16384,20468,0,0,12,-21846
573,0.279785,10,80,99,62,22061,32767,16384,20468,0,0,12,-21846
574,0.280273,9,76,79,68,22062,32767,16384,20468,0,0,12,-21846
575,0.280762,14,62,44,68,22063,32767,16384,20468,0,0,12,-21846
576,0.281250,28,41,40,61,22064,32767,16384,20468,0,0,12,-21846
577,0.281738,35,26,38,64,22065,32767,16384,20468,0,0,12,-21846
578,0.282227,13,32,20,66,22066,32767,16384,20468,0,0,12,-21846
579,0.282715,8,34,17,63,22067,32767,16384,20468,0,0,12,-21846
580,0.283203,17,21,25,61,22068,32767,16384,20468,0,0,12,-21846
581,0.283691,17,8,8,64,22069,32767,16384,20468,0,0,12,-21846
582,0.284180,1,-6,-40,68,22070,32767,16384,20468,0,0,12,-21846
583,0.284668,-2,-36,-68,64,22071,32767,16384,20468,0,0,12,-21846
584,0.285156,13,-62,-71,60,22072,32767,16384,20468,0,0,12,-21846
585,0.285645,12,-74,-92,64,22073,32767,16384,20468,0,0,12,-21846
586,0.286133,-19,-81,-124,68,22074,32767,16384,20468,0,0,12,-21846
587,0.286621,-22,-94,-128,64,22075,32767,16384,20468,0,0,12,-21846
588,0.287109,-7,-109,-127,61,22076,32767,16384,20468,0,0,12,-21846
589,0.287598,-12,-115,-151,64,22077,32767,16384,20468,0,0,12,-21846
590,0.288086,-29,-119,-177,69,22078,32767,16384,20468,0,0,12,-21846
591,0.288574,-27,-122,-167,62,22079,32767,16384,20468,0,0,12,-21846
592,0.289062,-21,-112,-139,60,22080,32767,16384,20468,0,0,12,-21846
593,0.289551,-25,-97,-130,66,22081,32767,16384,20468,0,0,12,-21846
594,0.290039,-34,-78,-132,66,22082,32767,16384,20468,0,0,12,-21846
595,0.290527,-30,-65,-93,62,22083,32767,16384,20468,0,0,12,-21846
596,0.291016,-26,-45,-57,61,22084,32767,16384,20468,0,0,12,-21846
597,0.291504,-37,-23,-44,67,22085,32767,16384,20468,0,0,12,-21846
598,0.291992,-49,-10,-44,67,22086,32767,16384,20468,0,0,12,-21846
599,0.292480,-45,-17,-25,61,22087,32767,16384,20468,0,0,12,-21846
600,0.292969,-34,-11,-1,62,22088,32767,16384,20468,0,0,12,-21846
601,0.293457,-45,5,-13,66,22089,32767,16384,20468,0,0,12,-21846
602,0.293945,-49,23,-3,65,22090,32767,16384,20468,0,0,12,-21846
603,0.294434,-31,36,37,62,22091,32767,16384,20468,0,0,12,-21846
604,0.294922,-19,54,62,63,22092,32767,16384,20468,0,0,12,-21846
605,0.295410,-32,69,55,68,22093,32767,16384,20468,0,0,12,-21846
606,0.295898,-32,74,58,66,22094,32767,16384,20468,0,0,12,-21846
607,0.296387,-15,69,79,60,22095,32767,16384,20468,0,0,12,-21846
608,0.296875,-10,82,97,64,22096,32767,16384,20468,0,0,12,-21846
609,0.297363,-16,111,105,66,22097,32767,16384,20468,0,0,12,-21846
610,0.297852,-19,119,118,63,22098,32767,16384,20468,0,0,12,-21846
611,0.298340,-2,114,138,61,22099,32767,16384,20468,0,0,12,-21846
612,0.298828,-11,100,119,64,22100,32767,16384,20468,0,0,12,-21846
613,0.299316,-20,98,90,69,22101,32767,16384,20468,0,0,12,-21846
614,0.299805,1,92,87,64,22102,32767,16384,20468,0,0,12,-21846
615,0.300293,23,71,90,60,22103,32767,16384,20468,0,0,12,-21846
616,0.300781,26,56,56,64,22104,32767,16384,20468,0,0,12,-21846
617,0.301270,18,37,15,68,22105,32767,16384,20468,0,0,12,-21846
618,0.301758,32,20,12,62,22106,32767,16384,20468,0,0,12,-21846
619,0.302246,37,10,22,61,22107,32767,16384,20468,0,0,12,-21846
620,0.302734,25,9,0,65,22108,32767,16384,20468,0,0,12,-21846
621,0.303223,10,15,-15,67,22109,32767,16384,20468,0,0,12,-21846
622,0.303711,9,-1,-10,61,22110,32767,16384,20468,0,0,12,-21846
623,0.304199,15,-24,-18,62,22111,32767,16384,20468,0,0,12,-21846
624,0.304688,-5,-47,-69,65,22112,32767,16384,20468,0,0,12,-21846
625,0.305176,-15,-61,-106,65,22113,32767,16384,20468,0,0,12,-21846
626,0.305664,-10,-88,-110,61,22114,32767,16384,20468,0,0,12,-21846
627,0.306152,-12,-98,-117,62,22115,32767,16384,20468,0,0,12,-21846
628,0.306641,-36,-103,-145,67,22116,32767,16384,20468,0,0,12,-21846
629,0.307129,-30,-105,-163,64,22117,32767,16384,20468,0,0,12,-21846
630,0.307617,-12,-122,-160,61,22118,32767,16384,20468,0,0,12,-21846
631,0.308105,-11,-125,-154,63,22119,32767,16384,20468,0,0,12,-21846
632,0.308594,-20,-111,-157,68,22120,32767,16384,20468,0,0,12,-21846
633,0.309082,-15,-100,-148,66,22121,32767,16384,20468,0,0,12,-21846
634,0.309570,-10,-95,-124,61,22122,32767,16384,20468,0,0,12,-21846
635,0.310059,-13,-86,-109,65,22123,32767,16384,20468,0,0,12,-21846
636,0.310547,-32,-55,-100,68,22124,32767,16384,20468,0,0,12,-21846
637,0.311035,-30,-29,-69,63,22125,32767,16384,20468,0,0,12,-21846
638,0.311523,-17,-12,-29,61,22126,32767,16384,20468,0,0,12,-21846
639,0.312012,-15,-5,-16,64,22127,32767,16384,20468,0,0,12,-21846
640,0.312500,-22,2,-35,68,22128,32767,16384,20468,0,0,12,-21846
641,0.312988,-13,10,-18,62,22129,32767,16384,20468,0,0,12,-21846
642,0.313477,-10,5,4,60,22130,32767,16384,20468,0,0,12,-21846
643,0.313965,-15,24,17,64,22131,32767,16384,20468,0,0,12,-21846
644,0.314453,-26,48,23,64,22132,32767,16384,20468,0,0,12,-21846
645,0.314941,-12,58,52,61,22133,32767,16384,20468,0,0,12,-21846
646,0.315430,5,69,85,62,22134,32767,16384,20468,0,0,12,-21846
647,0.315918,-5,76,78,67,22135,32767,16384,20468,0,0,12,-21846
648,0.316406,-15,84,65,67,22136,32767,16384,20468,0,0,12,-21846
649,0.316895,-7,88,96,61,22137,32767,16384,20468,0,0,12,-21846
650,0.317383,10,98,125,62,22138,32767,16384,20468,0,0,12,-21846
651,0.317871,1,109,117,66,22139,32767,16384,20468,0,0,12,-21846
652,0.318359,3,115,111,65,22140,32767,16384,20468,0,0,12,-21846
653,0.318848,16,103,122,61,22141,32767,16384,20468,0,0,12,-21846
654,0.319336,27,92,119,62,22142,32767,16384,20468,0,0,12,-21846
655,0.319824,-1,74,75,68,22143,32767,16384,20468,0,0,12,-21846
656,0.320312,-4,51,45,65,22144,32767,16384,20468,0,0,12,-21846
657,0.320801,17,30,35,60,22145,32767,16384,20468,0,0,12,-21846
658,0.321289,22,12,13,64,22146,32767,16384,20468,0,0,12,-21846
659,0.321777,6,15,-11,65,22147,32767,16384,20468,0,0,12,-21846
660,0.322266,3,18,-8,63,22148,32767,16384,20468,0,0,12,-21846
661,0.322754,17,13,15,61,22149,32767,16384,20468,0,0,12,-21846
662,0.323242,12,10,9,64,22150,32767,16384,20468,0,0,12,-21846
663,0.323730,-4,7,-21,69,22151,32767,16384,20468,0,0,12,-21846
664,0.324219,-12,-17,-42,65,22152,32767,16384,20468,0,0,12,-21846
665,0.324707,-3,-44,-48,61,22153,32767,16384,20468,0,0,12,-21846
666,0.325195,-7,-59,-73,64,22154,32767,16384,20468,0,0,12,-21846
667,0.325684,-19,-58,-108,65,22155,32767,16384,20468,0,0,12,-21846
668,0.326172,-28,-84,-118,61,22156,32767,16384,20468,0,0,12,-21846
669,0.326660,-26,-109,-120,61,22157,32767,16384,20468,0,0,12,-21846
670,0.327148,-27,-116,-141,66,22158,32767,16384,20468,0,0,12,-21846
671,0.327637,-42,-118,-179,68,22159,32767,16384,20468,0,0,12,-21846
672,0.328125,-25,-116,-167,62,22160,32767,16384,20468,0,0,12,-21846
673,0.328613,-3,-112,-138,62,22161,32767,16384,20468,0,0,12,-21846
674,0.329102,-6,-91,-132,66,22162,32767,16384,20468,0,0,12,-21846
675,0.329590,-16,-75,-133,63,22163,32767,16384,20468,0,0,12,-21846
676,0.330078,-7,-65,-104,62,22164,32767,16384,20468,0,0,12,-21846
677,0.330566,-2,-48,-66,62,22165,32767,16384,20468,0,0,12,-21846
678,0.331055,-13,-15,-53,68,22166,32767,16384,20468,0,0,12,-21846
679,0.331543,-23,-1,-40,67,22167,32767,16384,20468,0,0,12,-21846
680,0.332031,-27,-10,-24,60,22168,32767,16384,20468,0,0,12,-21846
681,0.332520,-28,-11,-14,64,22169,32767,16384,20468,0,0,12,-21846
682,0.333008,-33,7,-12,64,22170,32767,16384,20468,0,0,12,-21846
683,0.333496,-33,20,-3,64,22171,32767,16384,20468,0,0,12,-21846
684,0.333984,-17,36,38,61,22172,32767,16384,20468,0,0,12,-21846
685,0.334473,-17,50,63,64,22173,32767,16384,20468,0,0,12,-21846
686,0.334961,-21,73,59,69,22174,32767,16384,20468,0,0,12,-21846
687,0.335449,-14,82,70,64,22175,32767,16384,20468,0,0,12,-21846
688,0.335938,2,84,96,60,22176,32767,16384,20468,0,0,12,-21846
689,0.336426,5,92,105,63,22177,32767,16384,20468,0,0,12,-21846
690,0.336914,-4,114,99,64,22178,32767,16384,20468,0,0,12,-21846
691,0.337402,1,120,115,61,22179,32767,16384,20468,0,0,12,-21846
692,0.337891,11,115,136,61,22180,32767,16384,20468,0,0,12,-21846
693,0.338379,1,102,121,65,22181,32767,16384,20468,0,0,12,-21846
694,0.338867,-11,104,95,69,22182,32767,16384,20468,0,0,12,-21846
695,0.339355,3,91,93,62,22183,32767,16384,20468,0,0,12,-21846
696,0.339844,14,79,94,62,22184,32767,16384,20468,0,0,12,-21846
697,0.340332,13,68,66,64,22185,32767,16384,20468,0,0,12,-21846
698,0.340820,0,51,28,66,22186,32767,16384,20468,0,0,12,-21846
699,0.341309,12,30,24,62,22187,32767,16384,20468,0,0,12,-21846
700,0.341797,26,21,28,62,22188,32767,16384,20468,0,0,12,-21846
701,0.342285,13,31,14,68,22189,32767,16384,20468,0,0,12,-21846
702,0.342773,2,34,-2,67,22190,32767,16384,20468,0,0,12,-21846
703,0.343262,10,13,8,61,22191,32767,16384,20468,0,0,12,-21846
704,0.343750,21,-5,-2,62,22192,32767,16384,20468,0,0,12,-21846
705,0.344238,-4,-28,-46,64,22193,32767,16384,20468,0,0,12,-21846
706,0.344727,-9,-39,-77,64,22194,32767,16384,20468,0,0,12,-21846
707,0.345215,2,-65,-89,61,22195,32767,16384,20468,0,0,12,-21846
708,0.345703,0,-81,-100,62,22196,32767,16384,20468,0,0,12,-21846
709,0.346191,-9,-79,-122,69,22197,32767,16384,20468,0,0,12,-21846
710,0.346680,-16,-98,-139,65,22198,32767,16384,20468,0,0,12,-21846
711,0.347168,-2,-118,-144,60,22199,32767,16384,20468,0,0,12,-21846
712,0.347656,-6,-131,-154,63,22200,32767,16384,20468,0,0,12,-21846
713,0.348145,-36,-125,-182,66,22201,32767,16384,20468,0,0,12,-21846
714,0.348633,-45,-120,-172,64,22202,32767,16384,20468,0,0,12,-21846
715,0.349121,-32,-116,-141,61,22203,32767,16384,20468,0,0,12,-21846
716,0.349609,-37,-98,-131,64,22204,32767,16384,20468,0,0,12,-21846
717,0.350098,-50,-74,-131,68,22205,32767,16384,20468,0,0,12,-21846
718,0.350586,-48,-53,-96,62,22206,32767,16384,20468,0,0,12,-21846
719,0.351074,-34,-38,-49,61,22207,32767,16384,20468,0,0,12,-21846
720,0.351562,-38,-17,-37,64,22208,32767,16384,20468,0,0,12,-21846
721,0.352051,-48,-8,-49,68,22209,32767,16384,20468,0,0,12,-21846
722,0.352539,-41,-14,-37,63,22210,32767,16384,20468,0,0,12,-21846
723,0.353027,-36,-13,-19,62,22211,32767,16384,20468,0,0,12,-21846
724,0.353516,-44,0,-18,67,22212,32767,16384,20468,0,0,12,-21846
725,0.354004,-55,23,-13,69,22213,32767,16384,20468,0,0,12,-21846
726,0.354492,-44,35,28,61,22214,32767,16384,20468,0,0,12,-21846
727,0.354980,-30,47,59,61,22215,32767,16384,20468,0,0,12,-21846
728,0.355469,-22,70,70,67,22216,32767,16384,20468,0,0,12,-21846
729,0.355957,-5,92,78,65,22217,32767,16384,20468,0,0,12,-21846
730,0.356445,19,94,104,60,22218,32767,16384,20468,0,0,12,-21846
731,0.356934,29,105,128,63,22219,32767,16384,20468,0,0,12,-21846
732,0.357422,18,119,121,68,22220,32767,16384,20468,0,0,12,-21846
733,0.357910,-1,127,103,64,22221,32767,16384,20468,0,0,12,-21846
734,0.358398,19,110,119,61,22222,32767,16384,20468,0,0,12,-21846
735,0.358887,38,105,119,62,22223,32767,16384,20468,0,0,12,-21846
736,0.359375,30,100,90,68,22224,32767,16384,20468,0,0,12,-21846
737,0.359863,32,83,72,65,22225,32767,16384,20468,0,0,12,-21846
738,0.360352,48,56,64,61,22226,32767,16384,20468,0,0,12,-21846
739,0.360840,51,38,39,64,22227,32767,16384,20468,0,0,12,-21846
740,0.361328,27,27,-3,69,22228,32767,16384,20468,0,0,12,-21846
741,0.361816,16,21,0,63,22229,32767,16384,20468,0,0,12,-21846
742,0.362305,23,21,23,60,22230,32767,16384,20468,0,0,12,-21846
743,0.362793,16,20,18,64,22231,32767,16384,20468,0,0,12,-21846
744,0.363281,1,18,-12,67,22232,32767,16384,20468,0,0,12,-21846
745,0.363770,7,2,-20,61,22233,32767,16384,20468,0,0,12,-21846
746,0.364258,7,-35,-34,62,22234,32767,16384,20468,0,0,12,-21846
747,0.364746,1,-52,-72,66,22235,32767,16384,20468,0,0,12,-21846
748,0.365234,-14,-65,-109,66,22236,32767,16384,20468,0,0,12,-21846
749,0.365723,-5,-81,-107,61,22237,32767,16384,20468,0,0,12,-21846
750,0.366211,2,-93,-101,61,22238,32767,16384,20468,0,0,12,-21846
751,0.366699,-16,-102,-137,66,22239,32767,16384,20468,0,0,12,-21846
752,0.367188,-28,-112,-163,66,22240,32767,16384,20468,0,0,12,-21846
753,0.367676,-19,-124,-159,61,22241,32767,16384,20468,0,0,12,-21846
754,0.368164,-19,-122,-146,64,22242,32767,16384,20468,0,0,12,-21846
755,0.368652,-29,-104,-153,67,22243,32767,16384,20468,0,0,12,-21846
756,0.369141,-39,-93,-153,65,22244,32767,16384,20468,0,0,12,-21846
757,0.369629,-26,-89,-126,63,22245,32767,16384,20468,0,0,12,-21846
758,0.370117,-31,-78,-103,62,22246,32767,16384,20468,0,0,12,-21846
759,0.370605,-45,-52,-94,68,22247,32767,16384,20468,0,0,12,-21846
760,0.371094,-35,-20,-64,65,22248,32767,16384,20468,0,0,12,-21846
761,0.371582,-23,-16,-29,61,22249,32767,16384,20468,0,0,12,-21846
762,0.372070,-22,-13,-25,64,22250,32767,16384,20468,0,0,12,-21846
763,0.372559,-30,5,-34,67,22251,32767,16384,20468,0,0,12,-21846
764,0.373047,-32,11,-26,63,22252,32767,16384,20468,0,0,12,-21846
765,0.373535,-23,18,10,61,22253,32767,16384,20468,0,0,12,-21846
766,0.374023,-26,34,31,65,22254,32767,16384,20468,0,0,12,-21846
767,0.374512,-43,51,30,69,22255,32767,16384,20468,0,0,12,-21846
768,0.375000,-39,60,50,63,22256,32767,16384,20468,0,0,12,-21846
769,0.375488,-21,67,80,61,22257,32767,16384,20468,0,0,12,-21846
770,0.375977,-30,63,75,64,22258,32767,16384,20468,0,0,12,-21846
771,0.376465,-44,77,64,65,22259,32767,16384,20468,0,0,12,-21846
772,0.376953,-16,98,99,62,22260,32767,16384,20468,0,0,12,-21846
773,0.377441,1,106,125,61,22261,32767,16384,20468,0,0,12,-21846
774,0.377930,0,115,123,66,22262,32767,16384,20468,0,0,12,-21846
775,0.378418,-7,115,104,68,22263,32767,16384,20468,0,0,12,-21846
776,0.378906,6,100,106,62,22264,32767,16384,20468,0,0,12,-21846
777,0.379395,19,84,104,61,22265,32767,16384,20468,0,0,12,-21846
778,0.379883,6,78,75,65,22266,32767,16384,20468,0,0,12,-21846
779,0.380371,2,62,41,63,22267,32767,16384,20468,0,0,12,-21846
780,0.380859,18,36,32,61,22268,32767,16384,20468,0,0,12,-21846
781,0.381348,23,16,19,61,22269,32767,16384,20468,0,0,12,-21846
782,0.381836,14,20,5,68,22270,32767,16384,20468,0,0,12,-21846
783,0.382324,-7,19,-12,67,22271,32767,16384,20468,0,0,12,-21846
784,0.382812,11,11,5,61,22272,32767,16384,20468,0,0,12,-21846
785,0.383301,21,0,2,63,22273,32767,16384,20468,0,0,12,-21846
786,0.383789,9,-4,-31,67,22274,32767,16384,20468,0,0,12,-21846
787,0.384277,11,-25,-57,65,22275,32767,16384,20468,0,0,12,-21846
788,0.384766,17,-51,-67,61,22276,32767,16384,20468,0,0,12,-21846
789,0.385254,12,-69,-85,63,22277,32767,16384,20468,0,0,12,-21846
790,0.385742,-2,-75,-118,69,22278,32767,16384,20468,0,0,12,-21846
791,0.386230,-16,-86,-135,64,22279,32767,16384,20468,0,0,12,-21846
792,0.386719,-8,-109,-131,60,22280,32767,16384,20468,0,0,12,-21846
793,0.387207,-11,-116,-146,65,22281,32767,16384,20468,0,0,12,-21846
794,0.387695,-29,-117,-180,65,22282,32767,16384,20468,0,0,12,-21846
795,0.388184,-32,-123,-172,63,22283,32767,16384,20468,0,0,12,-21846
796,0.388672,-30,-125,-151,61,22284,32767,16384,20468,0,0,12,-21846
797,0.389160,-32,-107,-142,66,22285,32767,16384,20468,0,0,12,-21846
798,0.389648,-40,-82,-137,70,22286,32767,16384,20468,0,0,12,-21846
799,0.390137,-43,-67,-104,62,22287,32767,16384,20468,0,0,12,-21846
800,0.390625,-30,-42,-58,61,22288,32767,16384,20468,0,0,12,-21846
801,0.391113,-38,-14,-38,66,22289,32767,16384,20468,0,0,12,-21846
802,0.391602,-45,-6,-49,65,22290,32767,16384,20468,0,0,12,-21846
803,0.392090,-29,-11,-32,62,22291,32767,16384,20468,0,0,12,-21846
804,0.392578,-18,-10,-20,61,22292,32767,16384,20468,0,0,12,-21846
805,0.393066,-22,3,-18,67,22293,32767,16384,20468,0,0,12,-21846
806,0.393555,-33,23,-16,68,22294,32767,16384,20468,0,0,12,-21846
807,0.394043,-16,34,23,60,22295,32767,16384,20468,0,0,12,-21846
808,0.394531,-5,45,52,62,22296,32767,16384,20468,0,0,12,-21846
809,0.395020,-24,52,40,66,22297,32767,16384,20468,0,0,12,-21846
810,0.395508,-21,61,45,64,22298,32767,16384,20468,0,0,12,-21846
811,0.395996,6,69,72,61,22299,32767,16384,20468,0,0,12,-21846
812,0.396484,20,86,100,62,22300,32767,16384,20468,0,0,12,-21846
813,0.396973,-1,100,99,69,22301,32767,16384,20468,0,0,12,-21846
814,0.397461,-2,112,107,64,22302,32767,16384,20468,0,0,12,-21846
815,0.397949,11,107,122,60,22303,32767,16384,20468,0,0,12,-21846
816,0.398438,14,99,118,62,22304,32767,16384,20468,0,0,12,-21846
817,0.398926,-7,92,85,66,22305,32767,16384,20468,0,0,12,-21846
818,0.399414,-2,82,79,64,22306,32767,16384,20468,0,0,12,-21846
819,0.399902,13,64,77,60,22307,32767,16384,20468,0,0,12,-21846
820,0.400391,13,42,47,66,22308,32767,16384,20468,0,0,12,-21846
821,0.400879,-1,25,3,68,22309,32767,16384,20468,0,0,12,-21846
822,0.401367,0,14,-9,63,22310,32767,16384,20468,0,0,12,-21846
823,0.401855,2,8,8,61,22311,32767,16384,20468,0,0,12,-21846
824,0.402344,-11,6,5,64,22312,32767,16384,20468,0,0,12,-21846
825,0.402832,-15,19,-9,65,22313,32767,16384,20468,0,0,12,-21846
826,0.403320,-4,5,-9,63,22314,32767,16384,20468,0,0,12,-21846
827,0.403809,2,-18,-19,61,22315,32767,16384,20468,0,0,12,-21846
828,0.404297,-9,-36,-55,67,22316,32767,16384,20468,0,0,12,-21846
829,0.404785,-19,-50,-95,67,22317,32767,16384,20468,0,0,12,-21846
830,0.405273,-13,-78,-106,60,22318,32767,16384,20468,0,0,12,-21846
831,0.405762,-5,-89,-107,62,22319,32767,16384,20468,0,0,12,-21846
832,0.406250,-21,-91,-129,65,22320,32767,16384,20468,0,0,12,-21846
833,0.406738,-31,-103,-152,67,22321,32767,16384,20468,0,0,12,-21846
834,0.407227,-22,-122,-154,61,22322,32767,16384,20468,0,0,12,-21846
835,0.407715,-12,-126,-149,62,22323,32767,16384,20468,0,0,12,-21846
836,0.408203,-29,-121,-173,68,22324,32767,16384,20468,0,0,12,-21846
837,0.408691,-47,-116,-177,64,22325,32767,16384,20468,0,0,12,-21846
838,0.409180,-36,-110,-141,61,22326,32767,16384,20468,0,0,12,-21846
839,0.409668,-28,-96,-119,62,22327,32767,16384,20468,0,0,12,-21846
840,0.410156,-42,-67,-112,67,22328,32767,16384,20468,0,0,12,-21846
841,0.410645,-40,-39,-85,63,22329,32767,16384,20468,0,0,12,-21846
842,0.411133,-25,-25,-42,61,22330,32767,16384,20468,0,0,12,-21846
843,0.411621,-23,-17,-31,65,22331,32767,16384,20468,0,0,12,-21846
844,0.412109,-29,-8,-47,68,22332,32767,16384,20468,0,0,12,-21846
845,0.412598,-23,-1,-35,63,22333,32767,16384,20468,0,0,12,-21846
846,0.413086,-5,4,-2,61,22334,32767,16384,20468,0,0,12,-21846
847,0.413574,-6,22,12,64,22335,32767,16384,20468,0,0,12,-21846
848,0.414062,-12,47,16,67,22336,32767,16384,20468,0,0,12,-21846
849,0.414551,-3,57,45,63,22337,32767,16384,20468,0,0,12,-21846
850,0.415039,9,66,74,60,22338,32767,16384,20468,0,0,12,-21846
851,0.415527,-11,63,68,65,22339,32767,16384,20468,0,0,12,-21846
852,0.416016,-24,72,57,66,22340,32767,16384,20468,0,0,12,-21846
853,0.416504,-3,90,84,61,22341,32767,16384,20468,0,0,12,-21846
854,0.416992,12,97,120,61,22342,32767,16384,20468,0,0,12,-21846
855,0.417480,19,114,120,65,22343,32767,16384,20468,0,0,12,-21846
856,0.417969,15,116,99,67,22344,32767,16384,20468,0,0,12,-21846
857,0.418457,24,94,97,61,22345,32767,16384,20468,0,0,12,-21846
858,0.418945,29,74,90,62,22346,32767,16384,20468,0,0,12,-21846
859,0.419434,20,62,57,68,22347,32767,16384,20468,0,0,12,-21846
860,0.419922,14,38,16,65,22348,32767,16384,20468,0,0,12,-21846
861,0.420410,17,5,-4,61,22349,32767,16384,20468,0,0,12,-21846
862,0.420898,28,-12,-12,62,22350,32767,16384,20468,0,0,12,-21846
863,0.421387,9,-9,-36,68,22351,32767,16384,20468,0,0,12,-21846
864,0.421875,-6,-8,-40,65,22352,32767,16384,20468,0,0,12,-21846
865,0.422363,7,-7,-13,60,22353,32767,16384,20468,0,0,12,-21846
866,0.422852,11,-6,-8,63,22354,32767,16384,20468,0,0,12,-21846
867,0.423340,11,4,-28,67,22355,32767,16384,20468,0,0,12,-21846
868,0.423828,3,-13,-47,64,22356,32767,16384,20468,0,0,12,-21846
869,0.424316,-1,-50,-58,61,22357,32767,16384,20468,0,0,12,-21846
870,0.424805,-9,-64,-76,63,22358,32767,16384,20468,0,0,12,-21846
871,0.425293,-23,-72,-116,69,22359,32767,16384,20468,0,0,12,-21846
872,0.425781,-23,-80,-122,65,22360,32767,16384,20468,0,0,12,-21846
873,0.426270,-15,-98,-115,59,22361,32767,16384,20468,0,0,12,-21846
874,0.426758,-20,-106,-137,65,22362,32767,16384,20468,0,0,12,-21846
875,0.427246,-35,-115,-173,66,22363,32767,16384,20468,0,0,12,-21846
876,0.427734,-40,-129,-176,64,22364,32767,16384,20468,0,0,12,-21846
877,0.428223,-27,-121,-146,61,22365,32767,16384,20468,0,0,12,-21846
878,0.428711,-35,-106,-147,65,22366,32767,16384,20468,0,0,12,-21846
879,0.429199,-44,-86,-147,67,22367,32767,16384,20468,0,0,12,-21846
880,0.429688,-31,-74,-119,62,22368,32767,16384,20468,0,0,12,-21846
881,0.430176,-20,-55,-76,62,22369,32767,16384,20468,0,0,12,-21846
882,0.430664,-27,-23,-58,66,22370,32767,16384,20468,0,0,12,-21846
883,0.431152,-41,-9,-54,65,22371,32767,16384,20468,0,0,12,-21846
884,0.431641,-27,-6,-27,62,22372,32767,16384,20468,0,0,12,-21846
885,0.432129,-14,-7,-9,62,22373,32767,16384,20468,0,0,12,-21846
886,0.432617,-27,2,-23,66,22374,32767,16384,20468,0,0,12,-21846
887,0.433105,-29,14,-18,65,22375,32767,16384,20468,0,0,12,-21846
888,0.433594,-30,19,17,61,22376,32767,16384,20468,0,0,12,-21846
889,0.434082,-25,43,54,63,22377,32767,16384,20468,0,0,12,-21846
890,0.434570,-34,62,48,66,22378,32767,16384,20468,0,0,12,-21846
891,0.435059,-31,80,61,63,22379,32767,16384,20468,0,0,12,-21846
892,0.435547,-13,80,87,61,22380,32767,16384,20468,0,0,12,-21846
893,0.436035,-6,80,95,63,22381,32767,16384,20468,0,0,12,-21846
894,0.436523,-17,102,95,69,22382,32767,16384,20468,0,0,12,-21846
895,0.437012,-12,116,110,64,22383,32767,16384,20468,0,0,12,-21846
896,0.437500,-1,112,132,60,22384,32767,16384,20468,0,0,12,-21846
897,0.437988,-4,104,122,65,22385,32767,16384,20468,0,0,12,-21846
898,0.438477,-23,99,93,66,22386,32767,16384,20468,0,0,12,-21846
899,0.438965,-6,94,89,62,22387,32767,16384,20468,0,0,12,-21846
900,0.439453,3,75,93,61,22388,32767,16384,20468,0,0,12,-21846
901,0.439941,-2,47,59,65,22389,32767,16384,20468,0,0,12,-21846
902,0.440430,0,42,21,70,22390,32767,16384,20468,0,0,12,-21846
903,0.440918,10,23,8,62,22391,32767,16384,20468,0,0,12,-21846
904,0.441406,29,19,24,61,22392,32767,16384,20468,0,0,12,-21846
905,0.441895,18,26,18,66,22393,32767,16384,20468,0,0,12,-21846
906,0.442383,7,29,3,66,22394,32767,16384,20468,0,0,12,-21846
907,0.442871,18,14,6,62,22395,32767,16384,20468,0,0,12,-21846
908,0.443359,20,-1,3,61,22396,32767,16384,20468,0,0,12,-21846
909,0.443848,13,-12,-29,67,22397,32767,16384,20468,0,0,12,-21846
910,0.444336,4,-26,-62,67,22398,32767,16384,20468,0,0,12,-21846
911,0.444824,4,-62,-80,60,22399,32767,16384,20468,0,0,12,-21846
912,0.445312,6,-74,-86,63,22400,32767,16384,20468,0,0,12,-21846
913,0.445801,-16,-77,-116,66,22401,32767,16384,20468,0,0,12,-21846
914,0.446289,-20,-87,-137,64,22402,32767,16384,20468,0,0,12,-21846
915,0.446777,-8,-104,-135,62,22403,32767,16384,20468,0,0,12,-21846
916,0.447266,-6,-122,-153,62,22404,32767,16384,20468,0,0,12,-21846
917,0.447754,-21,-116,-166,69,22405,32767,16384,20468,0,0,12,-21846
918,0.448242,-23,-110,-162,64,22406,32767,16384,20468,0,0,12,-21846
919,0.448730,-11,-102,-130,61,22407,32767,16384,20468,0,0,12,-21846
920,0.449219,-16,-93,-117,63,22408,32767,16384,20468,0,0,12,-21846
921,0.449707,-39,-77,-124,67,22409,32767,16384,20468,0,0,12,-21846
922,0.450195,-32,-50,-89,64,22410,32767,16384,20468,0,0,12,-21846
923,0.450684,-15,-35,-46,61,22411,32767,16384,20468,0,0,12,-21846
924,0.451172,-17,-14,-28,63,22412,32767,16384,20468,0,0,12,-21846
925,0.451660,-33,-6,-45,69,22413,32767,16384,20468,0,0,12,-21846
926,0.452148,-31,-12,-35,63,22414,32767,16384,20468,0,0,12,-21846
927,0.452637,-13,-7,-3,62,22415,32767,16384,20468,0,0,12,-21846
928,0.453125,-17,10,0,65,22416,32767,16384,20468,0,0,12,-21846
929,0.453613,-28,35,4,65,22417,32767,16384,20468,0,0,12,-21846
930,0.454102,-19,49,36,63,22418,32767,16384,20468,0,0,12,-21846
931,0.454590,-6,57,68,61,22419,32767,16384,20468,0,0,12,-21846
932,0.455078,-9,77,75,66,22420,32767,16384,20468,0,0,12,-21846
933,0.455566,-8,88,65,67,22421,32767,16384,20468,0,0,12,-21846
934,0.456055,-2,84,84,61,22422,32767,16384,20468,0,0,12,-21846
935,0.456543,9,95,112,62,22423,32767,16384,20468,0,0,12,-21846
936,0.457031,1,113,114,66,22424,32767,16384,20468,0,0,12,-21846
937,0.457520,-1,122,115,66,22425,32767,16384,20468,0,0,12,-21846
938,0.458008,9,109,123,62,22426,32767,16384,20468,0,0,12,-21846
939,0.458496,8,90,118,61,22427,32767,16384,20468,0,0,12,-21846
940,0.458984,6,88,86,67,22428,32767,16384,20468,0,0,12,-21846
941,0.459473,9,86,71,64,22429,32767,16384,20468,0,0,12,-21846
942,0.459961,19,58,65,61,22430,32767,16384,20468,0,0,12,-21846
943,0.460449,22,38,50,63,22431,32767,16384,20468,0,0,12,-21846
944,0.460938,13,31,14,67,22432,32767,16384,20468,0,0,12,-21846
945,0.461426,14,28,9,64,22433,32767,16384,20468,0,0,12,-21846
946,0.461914,21,22,26,60,22434,32767,16384,20468,0,0,12,-21846
947,0.462402,18,20,21,64,22435,32767,16384,20468,0,0,12,-21846
948,0.462891,6,21,-6,67,22436,32767,16384,20468,0,0,12,-21846
949,0.463379,2,-2,-26,64,22437,32767,16384,20468,0,0,12,-21846
950,0.463867,12,-32,-37,61,22438,32767,16384,20468,0,0,12,-21846
951,0.464355,7,-55,-70,65,22439,32767,16384,20468,0,0,12,-21846
952,0.464844,-15,-71,-113,67,22440,32767,16384,20468,0,0,12,-21846
953,0.465332,-10,-85,-117,63,22441,32767,16384,20468,0,0,12,-21846
954,0.465820,4,-90,-104,60,22442,32767,16384,20468,0,0,12,-21846
955,0.466309,-1,-96,-123,67,22443,32767,16384,20468,0,0,12,-21846
956,0.466797,-22,-105,-161,66,22444,32767,16384,20468,0,0,12,-21846
957,0.467285,-18,-120,-163,61,22445,32767,16384,20468,0,0,12,-21846
958,0.467773,-8,-120,-147,62,22446,32767,16384,20468,0,0,12,-21846
959,0.468262,-19,-110,-146,66,22447,32767,16384,20468,0,0,12,-21846
960,0.468750,-26,-91,-141,67,22448,32767,16384,20468,0,0,12,-21846
961,0.469238,-19,-87,-120,61,22449,32767,16384,20468,0,0,12,-21846
962,0.469727,-14,-71,-93,62,22450,32767,16384,20468,0,0,12,-21846
963,0.470215,-34,-47,-85,66,22451,32767,16384,20468,0,0,12,-21846
964,0.470703,-50,-26,-70,63,22452,32767,16384,20468,0,0,12,-21846
965,0.471191,-29,-11,-30,61,22453,32767,16384,20468,0,0,12,-21846
966,0.471680,-18,-11,-22,62,22454,32767,16384,20468,0,0,12,-21846
967,0.472168,-24,4,-25,68,22455,32767,16384,20468,0,0,12,-21846
968,0.472656,-29,12,-21,65,22456,32767,16384,20468,0,0,12,-21846
969,0.473145,-22,21,17,61,22457,32767,16384,20468,0,0,12,-21846
970,0.473633,-17,39,39,64,22458,32767,16384,20468,0,0,12,-21846
971,0.474121,-27,63,42,66,22459,32767,16384,20468,0,0,12,-21846
972,0.474609,-22,71,52,63,22460,32767,16384,20468,0,0,12,-21846
973,0.475098,-5,67,78,61,22461,32767,16384,20468,0,0,12,-21846
974,0.475586,1,69,81,63,22462,32767,16384,20468,0,0,12,-21846
975,0.476074,1,88,77,69,22463,32767,16384,20468,0,0,12,-21846
976,0.476562,-5,99,96,63,22464,32767,16384,20468,0,0,12,-21846
977,0.477051,9,108,127,61,22465,32767,16384,20468,0,0,12,-21846
978,0.477539,7,114,125,65,22466,32767,16384,20468,0,0,12,-21846
979,0.478027,-7,107,95,65,22467,32767,16384,20468,0,0,12,-21846
980,0.478516,0,90,89,61,22468,32767,16384,20468,0,0,12,-21846
981,0.479004,9,76,94,61,22469,32767,16384,20468,0,0,12,-21846
982,0.479492,4,75,77,66,22470,32767,16384,20468,0,0,12,-21846
983,0.479980,-11,61,41,67,22471,32767,16384,20468,0,0,12,-21846
984,0.480469,-13,28,20,62,22472,32767,16384,20468,0,0,12,-21846
985,0.480957,6,8,16,62,22473,32767,16384,20468,0,0,12,-21846
986,0.481445,-6,8,-3,66,22474,32767,16384,20468,0,0,12,-21846
987,0.481934,-11,18,-12,64,22475,32767,16384,20468,0,0,12,-21846
988,0.482422,-5,0,-1,62,22476,32767,16384,20468,0,0,12,-21846
989,0.482910,7,-11,-6,61,22477,32767,16384,20468,0,0,12,-21846
990,0.483398,-2,-18,-37,68,22478,32767,16384,20468,0,0,12,-21846
991,0.483887,-6,-38,-67,67,22479,32767,16384,20468,0,0,12,-21846
992,0.484375,6,-57,-74,60,22480,32767,16384,20468,0,0,12,-21846
993,0.484863,11,-77,-86,62,22481,32767,16384,20468,0,0,12,-21846
994,0.485352,0,-80,-119,65,22482,32767,16384,20468,0,0,12,-21846
995,0.485840,-13,-88,-139,64,22483,32767,16384,20468,0,0,12,-21846
996,0.486328,-7,-109,-137,61,22484,32767,16384,20468,0,0,12,-21846
997,0.486816,-11,-120,-150,62,22485,32767,16384,20468,0,0,12,-21846
998,0.487305,-24,-114,-170,69,22486,32767,16384,20468,0,0,12,-21846
999,0.487793,-18,-103,-159,63,22487,32767,16384,20468,0,0,12,-21846
1000,0.488281,-7,-99,-132,60,22488,32767,16384,20468,0,0,12,-21846
1001,0.488770,-10,-89,-121,64,22489,32767,16384,20468,0,0,12,-21846
1002,0.489258,-28,-77,-138,66,22490,32767,16384,20468,0,0,12,-21846
1003,0.489746,-18,-60,-105,63,22491,32767,16384,20468,0,0,12,-21846
1004,0.490234,-3,-48,-62,61,22492,32767,16384,20468,0,0,12,-21846
1005,0.490723,-5,-26,-41,64,22493,32767,16384,20468,0,0,12,-21846
1006,0.491211,-24,-15,-48,70,22494,32767,16384,20468,0,0,12,-21846
1007,0.491699,-29,-23,-46,61,22495,32767,16384,20468,0,0,12,-21846
1008,0.492188,-26,-20,-25,61,22496,32767,16384,20468,0,0,12,-21846
1009,0.492676,-32,-1,-21,65,22497,32767,16384,20468,0,0,12,-21846
1010,0.493164,-38,23,-12,64,22498,32767,16384,20468,0,0,12,-21846
1011,0.493652,-33,30,21,62,22499,32767,16384,20468,0,0,12,-21846
1012,0.494141,-22,43,59,61,22500,32767,16384,20468,0,0,12,-21846
1013,0.494629,-19,71,69,67,22501,32767,16384,20468,0,0,12,-21846
1014,0.495117,-14,86,71,69,22502,32767,16384,20468,0,0,12,-21846
1015,0.495605,-17,71,76,61,22503,32767,16384,20468,0,0,12,-21846
1016,0.496094,1,88,107,63,22504,32767,16384,20468,0,0,12,-21846
1017,0.496582,-1,114,109,65,22505,32767,16384,20468,0,0,12,-21846
1018,0.497070,6,125,119,63,22506,32767,16384,20468,0,0,12,-21846
1019,0.497559,16,119,136,61,22507,32767,16384,20468,0,0,12,-21846
1020,0.498047,19,108,129,62,22508,32767,16384,20468,0,0,12,-21846
1021,0.498535,5,104,97,70,22509,32767,16384,20468,0,0,12,-21846
1022,0.499023,5,92,81,64,22510,32767,16384,20468,0,0,12,-21846
1023,0.499512,22,71,82,61,22511,32767,16384,20468,0,0,12,-21846
1024,0.500000,35,48,61,63,22512,32767,16384,20468,0,0,12,-21846
1025,0.500488,30,38,13,65,22513,32767,16384,20468,0,0,12,-21846
1026,0.500977,39,27,4,63,22514,32767,16384,20468,0,0,12,-21846
1027,0.501465,47,21,21,60,22515,32767,16384,20468,0,0,12,-21846
1028,0.501953,44,27,18,64,22516,32767,16384,20468,0,0,12,-21846
1029,0.502441,20,19,2,70,22517,32767,16384,20468,0,0,12,-21846
1030,0.502930,13,0,-9,63,22518,32767,16384,20468,0,0,12,-21846
1031,0.503418,24,-17,-20,61,22519,32767,16384,20468,0,0,12,-21846
1032,0.503906,14,-37,-56,64,22520,32767,16384,20468,0,0,12,-21846
1033,0.504395,-4,-47,-99,65,22521,32767,16384,20468,0,0,12,-21846
1034,0.504883,0,-77,-110,63,22522,32767,16384,20468,0,0,12,-21846
1035,0.505371,3,-86,-112,62,22523,32767,16384,20468,0,0,12,-21846
1036,0.505859,-10,-88,-126,66,22524,32767,16384,20468,0,0,12,-21846
1037,0.506348,-20,-99,-155,67,22525,32767,16384,20468,0,0,12,-21846
1038,0.506836,-20,-119,-158,62,22526,32767,16384,20468,0,0,12,-21846
1039,0.507324,-13,-123,-155,63,22527,32767,16384,20468,0,0,12,-21846
1040,0.507812,-25,-112,-160,66,22528,32767,16384,20468,0,0,12,-21846
1041,0.508301,-21,-95,-153,64,22529,32767,16384,20468,0,0,12,-21846
1042,0.508789,-17,-92,-129,62,22530,32767,16384,20468,0,0,12,-21846
1043,0.509277,-16,-82,-102,61,22531,32767,16384,20468,0,0,12,-21846
1044,0.509766,-26,-51,-97,69,22532,32767,16384,20468,0,0,12,-21846
1045,0.510254,-33,-29,-76,66,22533,32767,16384,20468,0,0,12,-21846
1046,0.510742,-26,-19,-32,60,22534,32767,16384,20468,0,0,12,-21846
1047,0.511230,-22,-11,-19,63,22535,32767,16384,20468,0,0,12,-21846
1048,0.511719,-34,-6,-40,66,22536,32767,16384,20468,0,0,12,-21846
1049,0.512207,-32,-4,-38,64,22537,32767,16384,20468,0,0,12,-21846
1050,0.512695,-14,1,-6,61,22538,32767,16384,20468,0,0,12,-21846
1051,0.513184,-17,14,7,64,22539,32767,16384,20468,0,0,12,-21846
1052,0.513672,-31,39,9,69,22540,32767,16384,20468,0,0,12,-21846
1053,0.514160,-28,50,28,62,22541,32767,16384,20468,0,0,12,-21846
1054,0.514648,-7,58,64,61,22542,32767,16384,20468,0,0,12,-21846
1055,0.515137,-7,66,71,63,22543,32767,16384,20468,0,0,12,-21846
1056,0.515625,-19,76,56,66,22544,32767,16384,20468,0,0,12,-21846
1057,0.516113,-14,85,72,63,22545,32767,16384,20468,0,0,12,-21846
1058,0.516602,-1,98,112,61,22546,32767,16384,20468,0,0,12,-21846
1059,0.517090,5,116,125,65,22547,32767,16384,20468,0,0,12,-21846
1060,0.517578,1,121,110,67,22548,32767,16384,20468,0,0,12,-21846
1061,0.518066,8,103,112,61,22549,32767,16384,20468,0,0,12,-21846
1062,0.518555,18,89,111,61,22550,32767,16384,20468,0,0,12,-21846
1063,0.519043,3,83,84,65,22551,32767,16384,20468,0,0,12,-21846
1064,0.519531,-9,70,50,66,22552,32767,16384,20468,0,0,12,-21846
1065,0.520020,1,44,43,62,22553,32767,16384,20468,0,0,12,-21846
1066,0.520508,17,28,34,62,22554,32767,16384,20468,0,0,12,-21846
1067,0.520996,10,21,9,68,22555,32767,16384,20468,0,0,12,-21846
1068,0.521484,2,25,4,64,22556,32767,16384,20468,0,0,12,-21846
1069,0.521973,7,17,14,60,22557,32767,16384,20468,0,0,12,-21846
1070,0.522461,9,2,7,62,22558,32767,16384,20468,0,0,12,-21846
1071,0.522949,-9,-6,-27,66,22559,32767,16384,20468,0,0,12,-21846
1072,0.523438,-25,-28,-56,65,22560,32767,16384,20468,0,0,12,-21846
1073,0.523926,-15,-61,-65,60,22561,32767,16384,20468,0,0,12,-21846
1074,0.524414,-20,-75,-88,64,22562,32767,16384,20468,0,0,12,-21846
1075,0.524902,-33,-80,-130,67,22563,32767,16384,20468,0,0,12,-21846
1076,0.525391,-26,-83,-130,64,22564,32767,16384,20468,0,0,12,-21846
1077,0.525879,-14,-97,-118,60,22565,32767,16384,20468,0,0,12,-21846
1078,0.526367,-9,-107,-136,63,22566,32767,16384,20468,0,0,12,-21846
1079,0.526855,-23,-112,-172,66,22567,32767,16384,20468,0,0,12,-21846
1080,0.527344,-16,-118,-169,63,22568,32767,16384,20468,0,0,12,-21846
1081,0.527832,-1,-113,-141,61,22569,32767,16384,20468,0,0,12,-21846
1082,0.528320,-4,-98,-135,65,22570,32767,16384,20468,0,0,12,-21846
1083,0.528809,-15,-86,-145,66,22571,32767,16384,20468,0,0,12,-21846
1084,0.529297,-20,-85,-128,61,22572,32767,16384,20468,0,0,12,-21846
1085,0.529785,-6,-61,-84,61,22573,32767,16384,20468,0,0,12,-21846
1086,0.530273,-26,-38,-70,67,22574,32767,16384,20468,0,0,12,-21846
1087,0.530762,-37,-12,-55,67,22575,32767,16384,20468,0,0,12,-21846
1088,0.531250,-26,-11,-33,62,22576,32767,16384,20468,0,0,12,-21846
1089,0.531738,-14,-14,-20,60,22577,32767,16384,20468,0,0,12,-21846
1090,0.532227,-16,7,-19,67,22578,32767,16384,20468,0,0,12,-21846
1091,0.532715,-23,22,-11,65,22579,32767,16384,20468,0,0,12,-21846
1092,0.533203,-15,28,17,62,22580,32767,16384,20468,0,0,12,-21846
1093,0.533691,-9,42,47,62,22581,32767,16384,20468,0,0,12,-21846
1094,0.534180,-10,62,51,68,22582,32767,16384,20468,0,0,12,-21846
1095,0.534668,-5,78,58,68,22583,32767,16384,20468,0,0,12,-21846
1096,0.535156,7,74,84,61,22584,32767,16384,20468,0,0,12,-21846
1097,0.535645,5,78,90,63,22585,32767,16384,20468,0,0,12,-21846
1098,0.536133,-6,98,91,66,22586,32767,16384,20468,0,0,12,-21846
1099,0.536621,-6,110,98,63,22587,32767,16384,20468,0,0,12,-21846
1100,0.537109,8,110,130,61,22588,32767,16384,20468,0,0,12,-21846
1101,0.537598,5,106,126,63,22589,32767,16384,20468,0,0,12,-21846
1102,0.538086,-12,99,96,69,22590,32767,16384,20468,0,0,12,-21846
1103,0.538574,-8,89,89,64,22591,32767,16384,20468,0,0,12,-21846
1104,0.539062,13,73,91,59,22592,32767,16384,20468,0,0,12,-21846
1105,0.539551,15,61,75,65,22593,32767,16384,20468,0,0,12,-21846
1106,0.540039,5,47,27,64,22594,32767,16384,20468,0,0,12,-21846
1107,0.540527,3,17,1,63,22595,32767,16384,20468,0,0,12,-21846
1108,0.541016,8,8,9,61,22596,32767,16384,20468,0,0,12,-21846
1109,0.541504,1,17,16,65,22597,32767,16384,20468,0,0,12,-21846
1110,0.541992,-12,28,1,68,22598,32767,16384,20468,0,0,12,-21846
1111,0.542480,-6,16,1,62,22599,32767,16384,20468,0,0,12,-21846
1112,0.542969,0,-5,-1,61,22600,32767,16384,20468,0,0,12,-21846
1113,0.543457,-9,-21,-42,64,22601,32767,16384,20468,0,0,12,-21846
1114,0.543945,-20,-41,-85,66,22602,32767,16384,20468,0,0,12,-21846
1115,0.544434,-13,-72,-100,63,22603,32767,16384,20468,0,0,12,-21846
1116,0.544922,-5,-91,-109,61,22604,32767,16384,20468,0,0,12,-21846
1117,0.545410,-18,-91,-133,67,22605,32767,16384,20468,0,0,12,-21846
1118,0.545898,-30,-102,-157,68,22606,32767,16384,20468,0,0,12,-21846
1119,0.546387,-24,-123,-157,61,22607,32767,16384,20468,0,0,12,-21846
1120,0.546875,-24,-137,-167,62,22608,32767,16384,20468,0,0,12,-21846
1121,0.547363,-30,-125,-180,65,22609,32767,16384,20468,0,0,12,-21846
1122,0.547852,-41,-120,-178,65,22610,32767,16384,20468,0,0,12,-21846
1123,0.548340,-47,-126,-161,60,22611,32767,16384,20468,0,0,12,-21846
1124,0.548828,-37,-113,-140,63,22612,32767,16384,20468,0,0,12,-21846
1125,0.549316,-46,-85,-135,68,22613,32767,16384,20468,0,0,12,-21846
1126,0.549805,-43,-57,-109,64,22614,32767,16384,20468,0,0,12,-21846
1127,0.550293,-22,-34,-58,61,22615,32767,16384,20468,0,0,12,-21846
1128,0.550781,-22,-18,-33,64,22616,32767,16384,20468,0,0,12,-21846
1129,0.551270,-35,-10,-46,66,22617,32767,16384,20468,0,0,12,-21846
1130,0.551758,-33,-10,-40,64,22618,32767,16384,20468,0,0,12,-21846
1131,0.552246,-12,-6,-10,61,22619,32767,16384,20468,0,0,12,-21846
1132,0.552734,-7,14,4,65,22620,32767,16384,20468,0,0,12,-21846
1133,0.553223,-16,37,2,69,22621,32767,16384,20468,0,0,12,-21846
1134,0.553711,-11,51,36,63,22622,32767,16384,20468,0,0,12,-21846
1135,0.554199,12,60,67,61,22623,32767,16384,20468,0,0,12,-21846
1136,0.554688,10,74,71,65,22624,32767,16384,20468,0,0,12,-21846
1137,0.555176,-2,85,58,66,22625,32767,16384,20468,0,0,12,-21846
1138,0.555664,15,91,80,62,22626,32767,16384,20468,0,0,12,-21846
1139,0.556152,23,97,117,61,22627,32767,16384,20468,0,0,12,-21846
1140,0.556641,8,115,120,68,22628,32767,16384,20468,0,0,12,-21846
1141,0.557129,-5,121,111,69,22629,32767,16384,20468,0,0,12,-21846
1142,0.557617,1,110,119,60,22630,32767,16384,20468,0,0,12,-21846
1143,0.558105,2,96,119,62,22631,32767,16384,20468,0,0,12,-21846
1144,0.558594,-13,90,91,64,22632,32767,16384,20468,0,0,12,-21846
1145,0.559082,-18,82,64,64,22633,32767,16384,20468,0,0,12,-21846
1146,0.559570,-4,56,60,61,22634,32767,16384,20468,0,0,12,-21846
1147,0.560059,3,36,45,63,22635,32767,16384,20468,0,0,12,-21846
1148,0.560547,-9,25,11,69,22636,32767,16384,20468,0,0,12,-21846
1149,0.561035,-9,28,5,66,22637,32767,16384,20468,0,0,12,-21846
1150,0.561523,-4,27,27,61,22638,32767,16384,20468,0,0,12,-21846
1151,0.562012,-10,19,23,63,22639,32767,16384,20468,0,0,12,-21846
1152,0.562500,-32,13,-15,65,22640,32767,16384,20468,0,0,12,-21846
1153,0.562988,-26,-3,-31,63,22641,32767,16384,20468,0,0,12,-21846
1154,0.563477,-28,-49,-57,61,22642,32767,16384,20468,0,0,12,-21846
1155,0.563965,-31,-69,-81,65,22643,32767,16384,20468,0,0,12,-21846
1156,0.564453,-44,-83,-125,70,22644,32767,16384,20468,0,0,12,-21846
1157,0.564941,-34,-91,-130,63,22645,32767,16384,20468,0,0,12,-21846
1158,0.565430,-11,-91,-114,61,22646,32767,16384,20468,0,0,12,-21846
1159,0.565918,-5,-94,-128,64,22647,32767,16384,20468,0,0,12,-21846
1160,0.566406,-6,-98,-158,66,22648,32767,16384,20468,0,0,12,-21846
1161,0.566895,14,-107,-156,63,22649,32767,16384,20468,0,0,12,-21846
1162,0.567383,33,-103,-132,61,22650,32767,16384,20468,0,0,12,-21846
1163,0.567871,28,-94,-132,68,22651,32767,16384,20468,0,0,12,-21846
1164,0.568359,15,-79,-134,67,22652,32767,16384,20468,0,0,12,-21846
1165,0.568848,9,-82,-118,62,22653,32767,16384,20468,0,0,12,-21846
1166,0.569336,10,-72,-90,63,22654,32767,16384,20468,0,0,12,-21846
1167,0.569824,-11,-49,-83,66,22655,32767,16384,20468,0,0,12,-21846
1168,0.570312,-28,-26,-78,66,22656,32767,16384,20468,0,0,12,-21846
1169,0.570801,-13,-16,-40,61,22657,32767,16384,20468,0,0,12,-21846
1170,0.571289,-13,-20,-32,62,22658,32767,16384,20468,0,0,12,-21846
1171,0.571777,-39,-22,-54,68,22659,32767,16384,20468,0,0,12,-21846
1172,0.572266,-37,-2,-38,66,22660,32767,16384,20468,0,0,12,-21846
1173,0.572754,-31,4,-11,61,22661,32767,16384,20468,0,0,12,-21846
1174,0.573242,-26,21,22,63,22662,32767,16384,20468,0,0,12,-21846
1175,0.573730,-34,46,22,66,22663,32767,16384,20468,0,0,12,-21846
1176,0.574219,-23,63,37,66,22664,32767,16384,20468,0,0,12,-21846
1177,0.574707,7,72,78,61,22665,32767,16384,20468,0,0,12,-21846
1178,0.575195,4,75,88,64,22666,32767,16384,20468,0,0,12,-21846
1179,0.575684,-11,91,80,67,22667,32767,16384,20468,0,0,12,-21846
1180,0.576172,-7,106,101,62,22668,32767,16384,20468,0,0,12,-21846
1181,0.576660,5,115,130,61,22669,32767,16384,20468,0,0,12,-21846
1182,0.577148,5,119,131,63,22670,32767,16384,20468,0,0,12,-21846
1183,0.577637,0,122,115,68,22671,32767,16384,20468,0,0,12,-21846
1184,0.578125,-12,102,101,63,22672,32767,16384,20468,0,0,12,-21846
1185,0.578613,-6,79,103,62,22673,32767,16384,20468,0,0,12,-21846
1186,0.579102,12,76,84,65,22674,32767,16384,20468,0,0,12,-21846
1187,0.579590,8,59,38,68,22675,32767,16384,20468,0,0,12,-21846
1188,0.580078,27,37,24,62,22676,32767,16384,20468,0,0,12,-21846
1189,0.580566,38,18,20,61,22677,32767,16384,20468,0,0,12,-21846
1190,0.581055,29,21,8,66,22678,32767,16384,20468,0,0,12,-21846
1191,0.581543,13,23,-2,66,22679,32767,16384,20468,0,0,12,-21846
1192,0.582031,15,19,3,60,22680,32767,16384,20468,0,0,12,-21846
1193,0.582520,24,9,8,62,22681,32767,16384,20468,0,0,12,-21846
1194,0.583008,8,-6,-25,66,22682,32767,16384,20468,0,0,12,-21846
1195,0.583496,-4,-23,-59,64,22683,32767,16384,20468,0,0,12,-21846
1196,0.583984,6,-50,-69,62,22684,32767,16384,20468,0,0,12,-21846
1197,0.584473,3,-73,-84,62,22685,32767,16384,20468,0,0,12,-21846
1198,0.584961,-15,-80,-120,67,22686,32767,16384,20468,0,0,12,-21846
1199,0.585449,-31,-93,-145,66,22687,32767,16384,20468,0,0,12,-21846
1200,0.585938,-21,-111,-144,61,22688,32767,16384,20468,0,0,12,-21846
1201,0.586426,-17,-122,-152,63,22689,32767,16384,20468,0,0,12,-21846
1202,0.586914,-29,-123,-172,67,22690,32767,16384,20468,0,0,12,-21846
1203,0.587402,-32,-118,-173,64,22691,32767,16384,20468,0,0,12,-21846
1204,0.587891,-20,-118,-145,61,22692,32767,16384,20468,0,0,12,-21846
1205,0.588379,-22,-105,-131,63,22693,32767,16384,20468,0,0,12,-21846
1206,0.588867,-40,-90,-136,68,22694,32767,16384,20468,0,0,12,-21846
1207,0.589355,-41,-67,-111,65,22695,32767,16384,20468,0,0,12,-21846
1208,0.589844,-28,-50,-66,60,22696,32767,16384,20468,0,0,12,-21846
1209,0.590332,-28,-28,-46,64,22697,32767,16384,20468,0,0,12,-21846
1210,0.590820,-39,-6,-49,66,22698,32767,16384,20468,0,0,12,-21846
1211,0.591309,-36,-12,-43,62,22699,32767,16384,20468,0,0,12,-21846
1212,0.591797,-22,-14,-17,60,22700,32767,16384,20468,0,0,12,-21846
1213,0.592285,-11,7,-3,64,22701,32767,16384,20468,0,0,12,-21846
1214,0.592773,-13,30,-3,68,22702,32767,16384,20468,0,0,12,-21846
1215,0.593262,-4,44,31,62,22703,32767,16384,20468,0,0,12,-21846
1216,0.593750,14,59,68,62,22704,32767,16384,20468,0,0,12,-21846
1217,0.594238,0,68,70,66,22705,32767,16384,20468,0,0,12,-21846
1218,0.594727,-8,79,63,63,22706,32767,16384,20468,0,0,12,-21846
1219,0.595215,1,81,82,62,22707,32767,16384,20468,0,0,12,-21846
1220,0.595703,6,85,105,62,22708,32767,16384,20468,0,0,12,-21846
1221,0.596191,-2,106,111,67,22709,32767,16384,20468,0,0,12,-21846
1222,0.596680,6,121,116,68,22710,32767,16384,20468,0,0,12,-21846
1223,0.597168,29,126,140,60,22711,32767,16384,20468,0,0,12,-21846
1224,0.597656,28,114,140,63,22712,32767,16384,20468,0,0,12,-21846
1225,0.598145,20,115,113,65,22713,32767,16384,20468,0,0,12,-21846
1226,0.598633,15,105,90,65,22714,32767,16384,20468,0,0,12,-21846
1227,0.599121,19,78,87,61,22715,32767,16384,20468,0,0,12,-21846
1228,0.599609,15,46,59,62,22716,32767,16384,20468,0,0,12,-21846
1229,0.600098,-7,29,10,68,22717,32767,16384,20468,0,0,12,-21846
1230,0.600586,-4,24,-5,64,22718,32767,16384,20468,0,0,12,-21846
1231,0.601074,4,13,10,60,22719,32767,16384,20468,0,0,12,-21846
1232,0.601562,2,14,11,65,22720,32767,16384,20468,0,0,12,-21846
1233,0.602051,-21,13,-23,67,22721,32767,16384,20468,0,0,12,-21846
1234,0.602539,-17,4,-25,63,22722,32767,16384,20468,0,0,12,-21846
1235,0.603027,-3,-21,-24,61,22723,32767,16384,20468,0,0,12,-21846
1236,0.603516,0,-39,-51,65,22724,32767,16384,20468,0,0,12,-21846
1237,0.604004,-14,-50,-95,71,22725,32767,16384,20468,0,0,12,-21846
1238,0.604492,-8,-73,-109,63,22726,32767,16384,20468,0,0,12,-21846
1239,0.604980,5,-85,-102,60,22727,32767,16384,20468,0,0,12,-21846
1240,0.605469,-4,-95,-121,64,22728,32767,16384,20468,0,0,12,-21846
1241,0.605957,-5,-97,-152,65,22729,32767,16384,20468,0,0,12,-21846
1242,0.606445,13,-120,-158,62,22730,32767,16384,20468,0,0,12,-21846
1243,0.606934,21,-128,-152,60,22731,32767,16384,20468,0,0,12,-21846
1244,0.607422,15,-114,-153,67,22732,32767,16384,20468,0,0,12,-21846
1245,0.607910,5,-100,-155,69,22733,32767,16384,20468,0,0,12,-21846
1246,0.608398,7,-96,-130,62,22734,32767,16384,20468,0,0,12,-21846
1247,0.608887,4,-87,-106,62,22735,32767,16384,20468,0,0,12,-21846
1248,0.609375,-12,-64,-97,67,22736,32767,16384,20468,0,0,12,-21846
1249,0.609863,-31,-38,-77,65,22737,32767,16384,20468,0,0,12,-21846
1250,0.610352,-29,-22,-38,62,22738,32767,16384,20468,0,0,12,-21846
1251,0.610840,-24,-10,-12,61,22739,32767,16384,20468,0,0,12,-21846
1252,0.611328,-24,-4,-28,69,22740,32767,16384,20468,0,0,12,-21846
1253,0.611816,-18,0,-30,67,22741,32767,16384,20468,0,0,12,-21846
1254,0.612305,-4,7,3,60,22742,32767,16384,20468,0,0,12,-21846
1255,0.612793,-6,17,17,63,22743,32767,16384,20468,0,0,12,-21846
1256,0.613281,-32,28,16,66,22744,32767,16384,20468,0,0,12,-21846
1257,0.613770,-20,50,37,64,22745,32767,16384,20468,0,0,12,-21846
1258,0.614258,3,60,68,60,22746,32767,16384,20468,0,0,12,-21846
1259,0.614746,9,72,83,64,22747,32767,16384,20468,0,0,12,-21846
1260,0.615234,4,83,71,67,22748,32767,16384,20468,0,0,12,-21846
1261,0.615723,7,94,87,63,22749,32767,16384,20468,0,0,12,-21846
1262,0.616211,18,101,123,61,22750,32767,16384,20468,0,0,12,-21846
1263,0.616699,16,111,127,64,22751,32767,16384,20468,0,0,12,-21846
1264,0.617188,-2,111,97,66,22752,32767,16384,20468,0,0,12,-21846
1265,0.617676,6,100,103,61,22753,32767,16384,20468,0,0,12,-21846
1266,0.618164,19,90,114,61,22754,32767,16384,20468,0,0,12,-21846
1267,0.618652,8,85,96,66,22755,32767,16384,20468,0,0,12,-21846
1268,0.619141,0,75,59,69,22756,32767,16384,20468,0,0,12,-21846
1269,0.619629,10,48,43,62,22757,32767,16384,20468,0,0,12,-21846
1270,0.620117,21,26,33,61,22758,32767,16384,20468,0,0,12,-21846
1271,0.620605,2,7,-1,66,22759,32767,16384,20468,0,0,12,-21846
1272,0.621094,-14,6,-16,66,22760,32767,16384,20468,0,0,12,-21846
1273,0.621582,5,9,2,62,22761,32767,16384,20468,0,0,12,-21846
1274,0.622070,17,2,8,61,22762,32767,16384,20468,0,0,12,-21846
1275,0.622559,-1,-2,-20,67,22763,32767,16384,20468,0,0,12,-21846
1276,0.623047,-10,-14,-48,67,22764,32767,16384,20468,0,0,12,-21846
1277,0.623535,1,-39,-54,61,22765,32767,16384,20468,0,0,12,-21846
1278,0.624023,1,-62,-75,64,22766,32767,16384,20468,0,0,12,-21846
1279,0.624512,-15,-76,-114,67,22767,32767,16384,20468,0,0,12,-21846
1280,0.625000,-27,-87,-133,65,22768,32767,16384,20468,0,0,12,-21846
1281,0.625488,-19,-100,-124,60,22769,32767,16384,20468,0,0,12,-21846
1282,0.625977,-21,-112,-139,62,22770,32767,16384,20468,0,0,12,-21846
1283,0.626465,-32,-121,-172,66,22771,32767,16384,20468,0,0,12,-21846
1284,0.626953,-31,-121,-173,64,22772,32767,16384,20468,0,0,12,-21846
1285,0.627441,-21,-124,-151,60,22773,32767,16384,20468,0,0,12,-21846
1286,0.627930,-32,-112,-148,64,22774,32767,16384,20468,0,0,12,-21846
1287,0.628418,-55,-96,-155,69,22775,32767,16384,20468,0,0,12,-21846
1288,0.628906,-55,-92,-142,63,22776,32767,16384,20468,0,0,12,-21846
1289,0.629395,-36,-73,-97,62,22777,32767,16384,20468,0,0,12,-21846
1290,0.629883,-35,-42,-70,65,22778,32767,16384,20468,0,0,12,-21846
1291,0.630371,-47,-20,-63,66,22779,32767,16384,20468,0,0,12,-21846
1292,0.630859,-38,-16,-39,63,22780,32767,16384,20468,0,0,12,-21846
1293,0.631348,-23,-19,-25,62,22781,32767,16384,20468,0,0,12,-21846
1294,0.631836,-27,-6,-27,66,22782,32767,16384,20468,0,0,12,-21846
1295,0.632324,-36,5,-28,67,22783,32767,16384,20468,0,0,12,-21846
1296,0.632812,-24,17,6,61,22784,32767,16384,20468,0,0,12,-21846
1297,0.633301,-11,35,42,62,22785,32767,16384,20468,0,0,12,-21846
1298,0.633789,-17,60,49,66,22786,32767,16384,20468,0,0,12,-21846
1299,0.634277,-23,72,47,66,22787,32767,16384,20468,0,0,12,-21846
1300,0.634766,-7,70,70,61,22788,32767,16384,20468,0,0,12,-21846
1301,0.635254,6,79,90,62,22789,32767,16384,20468,0,0,12,-21846
1302,0.635742,-9,87,87,68,22790,32767,16384,20468,0,0,12,-21846
1303,0.636230,-9,105,101,65,22791,32767,16384,20468,0,0,12,-21846
1304,0.636719,12,111,128,60,22792,32767,16384,20468,0,0,12,-21846
1305,0.637207,15,107,127,63,22793,32767,16384,20468,0,0,12,-21846
1306,0.637695,7,111,110,66,22794,32767,16384,20468,0,0,12,-21846
1307,0.638184,6,97,94,63,22795,32767,16384,20468,0,0,12,-21846
1308,0.638672,19,82,98,61,22796,32767,16384,20468,0,0,12,-21846
1309,0.639160,18,61,75,63,22797,32767,16384,20468,0,0,12,-21846
1310,0.639648,4,45,21,69,22798,32767,16384,20468,0,0,12,-21846
1311,0.640137,0,20,0,64,22799,32767,16384,20468,0,0,12,-21846
1312,0.640625,13,10,10,61,22800,32767,16384,20468,0,0,12,-21846
1313,0.641113,12,9,10,64,22801,32767,16384,20468,0,0,12,-21846
1314,0.641602,-2,16,-11,65,22802,32767,16384,20468,0,0,12,-21846
1315,0.642090,2,13,-10,63,22803,32767,16384,20468,0,0,12,-21846
1316,0.642578,9,-8,-8,60,22804,32767,16384,20468,0,0,12,-21846
1317,0.643066,-4,-26,-40,64,22805,32767,16384,20468,0,0,12,-21846
1318,0.643555,-37,-55,-90,68,22806,32767,16384,20468,0,0,12,-21846
1319,0.644043,-19,-69,-93,61,22807,32767,16384,20468,0,0,12,-21846
1320,0.644531,-7,-92,-105,62,22808,32767,16384,20468,0,0,12,-21846
1321,0.645020,-9,-88,-123,65,22809,32767,16384,20468,0,0,12,-21846
1322,0.645508,-16,-88,-142,65,22810,32767,16384,20468,0,0,12,-21846
1323,0.645996,-11,-109,-149,62,22811,32767,16384,20468,0,0,12,-21846
1324,0.646484,1,-116,-151,62,22812,32767,16384,20468,0,0,12,-21846
1325,0.646973,-10,-120,-173,67,22813,32767,16384,20468,0,0,12,-21846
1326,0.647461,-13,-112,-177,66,22814,32767,16384,20468,0,0,12,-21846
1327,0.647949,-7,-110,-148,61,22815,32767,16384,20468,0,0,12,-21846
1328,0.648438,-12,-103,-122,64,22816,32767,16384,20468,0,0,12,-21846
1329,0.648926,-28,-89,-126,66,22817,32767,16384,20468,0,0,12,-21846
1330,0.649414,-35,-62,-106,64,22818,32767,16384,20468,0,0,12,-21846
1331,0.649902,-19,-46,-63,62,22819,32767,16384,20468,0,0,12,-21846
1332,0.650391,-23,-27,-37,63,22820,32767,16384,20468,0,0,12,-21846
1333,0.650879,-45,-20,-52,68,22821,32767,16384,20468,0,0,12,-21846
1334,0.651367,-39,-14,-47,65,22822,32767,16384,20468,0,0,12,-21846
1335,0.651855,-15,-4,-19,60,22823,32767,16384,20468,0,0,12,-21846
1336,0.652344,-2,13,0,65,22824,32767,16384,20468,0,0,12,-21846
1337,0.652832,-13,38,2,65,22825,32767,16384,20468,0,0,12,-21846
1338,0.653320,-3,60,38,62,22826,32767,16384,20468,0,0,12,-21846
1339,0.653809,6,64,71,62,22827,32767,16384,20468,0,0,12,-21846
1340,0.654297,5,76,84,65,22828,32767,16384,20468,0,0,12,-21846
1341,0.654785,-9,91,73,70,22829,32767,16384,20468,0,0,12,-21846
1342,0.655273,-9,89,84,63,22830,32767,16384,20468,0,0,12,-21846
1343,0.655762,9,103,123,61,22831,32767,16384,20468,0,0,12,-21846
1344,0.656250,7,119,126,66,22832,32767,16384,20468,0,0,12,-21846
1345,0.656738,0,132,114,64,22833,32767,16384,20468,0,0,12,-21846
1346,0.657227,6,117,119,63,22834,32767,16384,20468,0,0,12,-21846
1347,0.657715,20,106,125,61,22835,32767,16384,20468,0,0,12,-21846
1348,0.658203,4,92,92,67,22836,32767,16384,20468,0,0,12,-21846
1349,0.658691,-3,90,73,68,22837,32767,16384,20468,0,0,12,-21846
1350,0.659180,6,66,64,61,22838,32767,16384,20468,0,0,12,-21846
1351,0.659668,12,35,49,62,22839,32767,16384,20468,0,0,12,-21846
1352,0.660156,10,30,18,66,22840,32767,16384,20468,0,0,12,-21846
1353,0.660645,5,29,-3,64,22841,32767,16384,20468,0,0,12,-21846
1354,0.661133,15,19,14,61,22842,32767,16384,20468,0,0,12,-21846
1355,0.661621,19,11,13,62,22843,32767,16384,20468,0,0,12,-21846
1356,0.662109,3,8,-13,69,22844,32767,16384,20468,0,0,12,-21846
1357,0.662598,-4,-5,-34,65,22845,32767,16384,20468,0,0,12,-21846
1358,0.663086,7,-30,-39,60,22846,32767,16384,20468,0,0,12,-21846
1359,0.663574,7,-45,-58,63,22847,32767,16384,20468,0,0,12,-21846
1360,0.664062,-11,-56,-98,66,22848,32767,16384,20468,0,0,12,-21846
1361,0.664551,-16,-69,-113,65,22849,32767,16384,20468,0,0,12,-21846
1362,0.665039,-15,-88,-115,60,22850,32767,16384,20468,0,0,12,-21846
1363,0.665527,-15,-100,-130,64,22851,32767,16384,20468,0,0,12,-21846
1364,0.666016,-31,-109,-168,69,22852,32767,16384,20468,0,0,12,-21846
1365,0.666504,-23,-120,-174,63,22853,32767,16384,20468,0,0,12,-21846
1366,0.666992,-12,-123,-157,60,22854,32767,16384,20468,0,0,12,-21846
1367,0.667480,-18,-116,-150,65,22855,32767,16384,20468,0,0,12,-21846
1368,0.667969,-28,-95,-148,65,22856,32767,16384,20468,0,0,12,-21846
1369,0.668457,-35,-91,-133,63,22857,32767,16384,20468,0,0,12,-21846
1370,0.668945,-26,-74,-95,60,22858,32767,16384,20468,0,0,12,-21846
1371,0.669434,-33,-49,-76,66,22859,32767,16384,20468,0,0,12,-21846
1372,0.669922,-40,-27,-70,68,22860,32767,16384,20468,0,0,12,-21846
1373,0.670410,-34,-22,-42,62,22861,32767,16384,20468,0,0,12,-21846
1374,0.670898,-21,-16,-20,61,22862,32767,16384,20468,0,0,12,-21846
1375,0.671387,-28,-12,-33,65,22863,32767,16384,20468,0,0,12,-21846
1376,0.671875,-37,3,-38,66,22864,32767,16384,20468,0,0,12,-21846
1377,0.672363,-30,7,-12,61,22865,32767,16384,20468,0,0,12,-21846
1378,0.672852,-35,3,4,62,22866,32767,16384,20468,0,0,12,-21846
1379,0.673340,-30,33,23,68,22867,32767,16384,20468,0,0,12,-21846
1380,0.673828,-38,44,21,66,22868,32767,16384,20468,0,0,12,-21846
1381,0.674316,-18,58,54,61,22869,32767,16384,20468,0,0,12,-21846
1382,0.674805,4,68,72,63,22870,32767,16384,20468,0,0,12,-21846
1383,0.675293,9,91,78,65,22871,32767,16384,20468,0,0,12,-21846
1384,0.675781,17,105,88,65,22872,32767,16384,20468,0,0,12,-21846
1385,0.676270,43,113,125,61,22873,32767,16384,20468,0,0,12,-21846
1386,0.676758,52,121,139,63,22874,32767,16384,20468,0,0,12,-21846
1387,0.677246,42,126,115,68,22875,32767,16384,20468,0,0,12,-21846
1388,0.677734,40,111,109,63,22876,32767,16384,20468,0,0,12,-21846
1389,0.678223,46,90,110,62,22877,32767,16384,20468,0,0,12,-21846
1390,0.678711,31,80,93,64,22878,32767,16384,20468,0,0,12,-21846
1391,0.679199,4,52,44,69,22879,32767,16384,20468,0,0,12,-21846
1392,0.679688,10,33,25,63,22880,32767,16384,20468,0,0,12,-21846
1393,0.680176,24,10,16,60,22881,32767,16384,20468,0,0,12,-21846
1394,0.680664,19,9,13,65,22882,32767,16384,20468,0,0,12,-21846
1395,0.681152,5,24,-3,68,22883,32767,16384,20468,0,0,12,-21846
1396,0.681641,13,21,-1,62,22884,32767,16384,20468,0,0,12,-21846
1397,0.682129,22,6,4,62,22885,32767,16384,20468,0,0,12,-21846
1398,0.682617,14,-6,-26,66,22886,32767,16384,20468,0,0,12,-21846
1399,0.683105,-7,-28,-71,68,22887,32767,16384,20468,0,0,12,-21846
1400,0.683594,3,-50,-79,62,22888,32767,16384,20468,0,0,12,-21846
1401,0.684082,6,-73,-86,61,22889,32767,16384,20468,0,0,12,-21846
1402,0.684570,-4,-76,-114,66,22890,32767,16384,20468,0,0,12,-21846
1403,0.685059,-24,-80,-135,65,22891,32767,16384,20468,0,0,12,-21846
1404,0.685547,-19,-100,-132,62,22892,32767,16384,20468,0,0,12,-21846
1405,0.686035,-27,-121,-146,62,22893,32767,16384,20468,0,0,12,-21846
1406,0.686523,-45,-124,-171,68,22894,32767,16384,20468,0,0,12,-21846
1407,0.687012,-50,-118,-177,67,22895,32767,16384,20468,0,0,12,-21846
1408,0.687500,-37,-114,-157,62,22896,32767,16384,20468,0,0,12,-21846
1409,0.687988,-29,-101,-130,64,22897,32767,16384,20468,0,0,12,-21846
1410,0.688477,-35,-81,-127,67,22898,32767,16384,20468,0,0,12,-21846
1411,0.688965,-41,-61,-111,63,22899,32767,16384,20468,0,0,12,-21846
1412,0.689453,-33,-49,-71,62,22900,32767,16384,20468,0,0,12,-21846
1413,0.689941,-31,-26,-42,63,22901,32767,16384,20468,0,0,12,-21846
1414,0.690430,-48,-7,-44,68,22902,32767,16384,20468,0,0,12,-21846
1415,0.690918,-36,-4,-34,64,22903,32767,16384,20468,0,0,12,-21846
1416,0.691406,-21,-7,-13,60,22904,32767,16384,20468,0,0,12,-21846
1417,0.691895,-24,6,-4,66,22905,32767,16384,20468,0,0,12,-21846
1418,0.692383,-31,25,-5,68,22906,32767,16384,20468,0,0,12,-21846
1419,0.692871,-39,28,9,64,22907,32767,16384,20468,0,0,12,-21846
1420,0.693359,-24,28,43,61,22908,32767,16384,20468,0,0,12,-21846
1421,0.693848,-21,45,43,66,22909,32767,16384,20468,0,0,12,-21846
1422,0.694336,-29,63,38,69,22910,32767,16384,20468,0,0,12,-21846
1423,0.694824,-18,66,55,61,22911,32767,16384,20468,0,0,12,-21846
1424,0.695312,4,76,92,62,22912,32767,16384,20468,0,0,12,-21846
1425,0.695801,-1,99,104,65,22913,32767,16384,20468,0,0,12,-21846
1426,0.696289,-1,118,112,66,22914,32767,16384,20468,0,0,12,-21846
1427,0.696777,7,113,123,62,22915,32767,16384,20468,0,0,12,-21846
1428,0.697266,10,103,120,62,22916,32767,16384,20468,0,0,12,-21846
1429,0.697754,-2,92,89,67,22917,32767,16384,20468,0,0,12,-21846
1430,0.698242,-7,85,73,67,22918,32767,16384,20468,0,0,12,-21846
1431,0.698730,15,72,77,61,22919,32767,16384,20468,0,0,12,-21846
1432,0.699219,28,49,64,62,22920,32767,16384,20468,0,0,12,-21846
1433,0.699707,14,26,20,66,22921,32767,16384,20468,0,0,12,-21846
1434,0.700195,18,16,-3,64,22922,32767,16384,20468,0,0,12,-21846
1435,0.700684,39,16,16,61,22923,32767,16384,20468,0,0,12,-21846
1436,0.701172,43,19,18,62,22924,32767,16384,20468,0,0,12,-21846
1437,0.701660,35,28,2,70,22925,32767,16384,20468,0,0,12,-21846
1438,0.702148,23,19,-10,64,22926,32767,16384,20468,0,0,12,-21846
1439,0.702637,26,-8,-11,59,22927,32767,16384,20468,0,0,12,-21846
1440,0.703125,16,-31,-39,64,22928,32767,16384,20468,0,0,12,-21846
1441,0.703613,-5,-48,-85,65,22929,32767,16384,20468,0,0,12,-21846
1442,0.704102,-3,-63,-104,63,22930,32767,16384,20468,0,0,12,-21846
1443,0.704590,0,-81,-104,62,22931,32767,16384,20468,0,0,12,-21846
1444,0.705078,-4,-88,-113,65,22932,32767,16384,20468,0,0,12,-21846
1445,0.705566,-19,-95,-148,71,22933,32767,16384,20468,0,0,12,-21846
1446,0.706055,-25,-115,-164,63,22934,32767,16384,20468,0,0,12,-21846
1447,0.706543,-14,-132,-157,60,22935,32767,16384,20468,0,0,12,-21846
1448,0.707031,-15,-121,-159,65,22936,32767,16384,20468,0,0,12,-21846
1449,0.707520,-23,-101,-165,66,22937,32767,16384,20468,0,0,12,-21846
1450,0.708008,-14,-94,-138,62,22938,32767,16384,20468,0,0,12,-21846
1451,0.708496,-2,-87,-114,62,22939,32767,16384,20468,0,0,12,-21846
1452,0.708984,-10,-61,-99,67,22940,32767,16384,20468,0,0,12,-21846
1453,0.709473,-15,-28,-76,68,22941,32767,16384,20468,0,0,12,-21846
1454,0.709961,-11,-16,-41,61,22942,32767,16384,20468,0,0,12,-21846
1455,0.710449,-10,-8,-18,63,22943,32767,16384,20468,0,0,12,-21846
1456,0.710938,-24,-7,-31,66,22944,32767,16384,20468,0,0,12,-21846
1457,0.711426,-32,0,-30,65,22945,32767,16384,20468,0,0,12,-21846
1458,0.711914,-23,3,-3,61,22946,32767,16384,20468,0,0,12,-21846
1459,0.712402,-25,9,12,62,22947,32767,16384,20468,0,0,12,-21846
1460,0.712891,-43,28,14,68,22948,32767,16384,20468,0,0,12,-21846
1461,0.713379,-29,53,40,65,22949,32767,16384,20468,0,0,12,-21846
1462,0.713867,-8,64,69,60,22950,32767,16384,20468,0,0,12,-21846
1463,0.714355,-7,71,82,64,22951,32767,16384,20468,0,0,12,-21846
1464,0.714844,-13,87,68,65,22952,32767,16384,20468,0,0,12,-21846
1465,0.715332,-7,95,84,64,22953,32767,16384,20468,0,0,12,-21846
1466,0.715820,2,101,117,62,22954,32767,16384,20468,0,0,12,-21846
1467,0.716309,2,108,129,63,22955,32767,16384,20468,0,0,12,-21846
1468,0.716797,-14,117,104,71,22956,32767,16384,20468,0,0,12,-21846
1469,0.717285,-8,107,104,63,22957,32767,16384,20468,0,0,12,-21846
1470,0.717773,4,90,112,61,22958,32767,16384,20468,0,0,12,-21846
1471,0.718262,-2,85,93,65,22959,32767,16384,20468,0,0,12,-21846
1472,0.718750,-18,68,49,66,22960,32767,16384,20468,0,0,12,-21846
1473,0.719238,-13,44,37,62,22961,32767,16384,20468,0,0,12,-21846
1474,0.719727,1,23,31,61,22962,32767,16384,20468,0,0,12,-21846
1475,0.720215,4,22,9,66,22963,32767,16384,20468,0,0,12,-21846
1476,0.720703,-13,30,-3,68,22964,32767,16384,20468,0,0,12,-21846
1477,0.721191,-13,21,7,60,22965,32767,16384,20468,0,0,12,-21846
1478,0.721680,3,13,18,63,22966,32767,16384,20468,0,0,12,-21846
1479,0.722168,-13,7,-15,66,22967,32767,16384,20468,0,0,12,-21846
1480,0.722656,-23,-5,-47,68,22968,32767,16384,20468,0,0,12,-21846
1481,0.723145,-4,-34,-55,62,22969,32767,16384,20468,0,0,12,-21846
1482,0.723633,5,-58,-72,61,22970,32767,16384,20468,0,0,12,-21846
1483,0.724121,-6,-71,-108,68,22971,32767,16384,20468,0,0,12,-21846
1484,0.724609,-8,-76,-125,67,22972,32767,16384,20468,0,0,12,-21846
1485,0.725098,7,-87,-118,60,22973,32767,16384,20468,0,0,12,-21846
1486,0.725586,2,-113,-139,64,22974,32767,16384,20468,0,0,12,-21846
1487,0.726074,-22,-129,-178,66,22975,32767,16384,20468,0,0,12,-21846
1488,0.726562,-19,-124,-177,65,22976,32767,16384,20468,0,0,12,-21846
1489,0.727051,-13,-126,-161,60,22977,32767,16384,20468,0,0,12,-21846
1490,0.727539,-14,-113,-144,64,22978,32767,16384,20468,0,0,12,-21846
1491,0.728027,-28,-96,-150,68,22979,32767,16384,20468,0,0,12,-21846
1492,0.728516,-31,-86,-130,63,22980,32767,16384,20468,0,0,12,-21846
1493,0.729004,-19,-69,-88,62,22981,32767,16384,20468,0,0,12,-21846
1494,0.729492,-17,-43,-64,63,22982,32767,16384,20468,0,0,12,-21846
1495,0.729980,-26,-15,-58,67,22983,32767,16384,20468,0,0,12,-21846
1496,0.730469,-27,-12,-41,63,22984,32767,16384,20468,0,0,12,-21846
1497,0.730957,-11,-15,-21,60,22985,32767,16384,20468,0,0,12,-21846
1498,0.731445,-19,-9,-25,66,22986,32767,16384,20468,0,0,12,-21846
1499,0.731934,-32,9,-28,68,22987,32767,16384,20468,0,0,12,-21846
1500,0.732422,-24,25,6,62,22988,32767,16384,20468,0,0,12,-21846
1501,0.732910,-22,36,44,61,22989,32767,16384,20468,0,0,12,-21846
1502,0.733398,-26,56,49,66,22990,32767,16384,20468,0,0,12,-21846
1503,0.733887,-36,69,42,69,22991,32767,16384,20468,0,0,12,-21846
1504,0.734375,-22,71,66,62,22992,32767,16384,20468,0,0,12,-21846
1505,0.734863,-11,71,85,62,22993,32767,16384,20468,0,0,12,-21846
1506,0.735352,-19,93,84,67,22994,32767,16384,20468,0,0,12,-21846
1507,0.735840,-18,111,93,65,22995,32767,16384,20468,0,0,12,-21846
1508,0.736328,-1,114,121,61,22996,32767,16384,20468,0,0,12,-21846
1509,0.736816,3,109,130,62,22997,32767,16384,20468,0,0,12,-21846
1510,0.737305,-4,107,109,66,22998,32767,16384,20468,0,0,12,-21846
1511,0.737793,-10,92,84,66,22999,32767,16384,20468,0,0,12,-21846
1512,0.738281,3,68,77,60,23000,32767,16384,20468,0,0,12,-21846
1513,0.738770,13,53,64,64,23001,32767,16384,20468,0,0,12,-21846
1514,0.739258,-7,34,18,67,23002,32767,16384,20468,0,0,12,-21846
1515,0.739746,-13,19,-2,63,23003,32767,16384,20468,0,0,12,-21846
1516,0.740234,5,9,6,61,23004,32767,16384,20468,0,0,12,-21846
1517,0.740723,8,14,13,63,23005,32767,16384,20468,0,0,12,-21846
1518,0.741211,-4,19,-8,68,23006,32767,16384,20468,0,0,12,-21846
1519,0.741699,2,12,-16,64,23007,32767,16384,20468,0,0,12,-21846
1520,0.742188,14,-10,-13,61,23008,32767,16384,20468,0,0,12,-21846
1521,0.742676,13,-23,-36,65,23009,32767,16384,20468,0,0,12,-21846
1522,0.743164,0,-38,-77,67,23010,32767,16384,20468,0,0,12,-21846
1523,0.743652,5,-57,-92,63,23011,32767,16384,20468,0,0,12,-21846
1524,0.744141,11,-81,-100,62,23012,32767,16384,20468,0,0,12,-21846
1525,0.744629,2,-86,-115,65,23013,32767,16384,20468,0,0,12,-21846
1526,0.745117,-1,-89,-143,68,23014,32767,16384,20468,0,0,12,-21846
1527,0.745605,1,-104,-149,62,23015,32767,16384,20468,0,0,12,-21846
1528,0.746094,-1,-132,-154,61,23016,32767,16384,20468,0,0,12,-21846
1529,0.746582,-17,-134,-166,67,23017,32767,16384,20468,0,0,12,-21846
1530,0.747070,-21,-112,-169,65,23018,32767,16384,20468,0,0,12,-21846
1531,0.747559,-16,-108,-146,62,23019,32767,16384,20468,0,0,12,-21846
1532,0.748047,-13,-99,-120,61,23020,32767,16384,20468,0,0,12,-21846
1533,0.748535,-25,-83,-122,66,23021,32767,16384,20468,0,0,12,-21846
1534,0.749023,-36,-59,-108,67,23022,32767,16384,20468,0,0,12,-21846
1535,0.749512,-27,-40,-68,60,23023,32767,16384,20468,0,0,12,-21846
1536,0.750000,-21,-23,-36,63,23024,32767,16384,20468,0,0,12,-21846
1537,0.750488,-34,-14,-44,67,23025,32767,16384,20468,0,0,12,-21846
1538,0.750977,-36,-11,-46,63,23026,32767,16384,20468,0,0,12,-21846
1539,0.751465,-17,-7,-19,60,23027,32767,16384,20468,0,0,12,-21846
1540,0.751953,-8,3,2,62,23028,32767,16384,20468,0,0,12,-21846
1541,0.752441,-20,27,4,69,23029,32767,16384,20468,0,0,12,-21846
1542,0.752930,-22,47,22,64,23030,32767,16384,20468,0,0,12,-21846
1543,0.753418,-3,58,59,59,23031,32767,16384,20468,0,0,12,-21846
1544,0.753906,0,68,72,65,23032,32767,16384,20468,0,0,12,-21846
1545,0.754395,-29,72,54,65,23033,32767,16384,20468,0,0,12,-21846
1546,0.754883,-21,78,66,62,23034,32767,16384,20468,0,0,12,-21846
1547,0.755371,-5,82,93,60,23035,32767,16384,20468,0,0,12,-21846
1548,0.755859,-3,101,109,63,23036,32767,16384,20468,0,0,12,-21846
1549,0.756348,-9,116,101,70,23037,32767,16384,20468,0,0,12,-21846
1550,0.756836,1,105,103,63,23038,32767,16384,20468,0,0,12,-21846
1551,0.757324,13,90,111,61,23039,32767,16384,20468,0,0,12,-21846
1552,0.757812,10,85,94,67,23040,32767,16384,20468,0,0,12,-21846
1553,0.758301,3,86,70,65,23041,32767,16384,20468,0,0,12,-21846
1554,0.758789,13,64,61,61,23042,32767,16384,20468,0,0,12,-21846
1555,0.759277,13,35,42,62,23043,32767,16384,20468,0,0,12,-21846
1556,0.759766,4,16,8,66,23044,32767,16384,20468,0,0,12,-21846
1557,0.760254,-6,8,-17,68,23045,32767,16384,20468,0,0,12,-21846
1558,0.760742,-10,7,-3,61,23046,32767,16384,20468,0,0,12,-21846
1559,0.761230,-7,2,4,63,23047,32767,16384,20468,0,0,12,-21846
1560,0.761719,-11,10,-8,66,23048,32767,16384,20468,0,0,12,-21846
1561,0.762207,-12,-1,-29,65,23049,32767,16384,20468,0,0,12,-21846
1562,0.762695,1,-28,-37,62,23050,32767,16384,20468,0,0,12,-21846
1563,0.763184,0,-51,-58,62,23051,32767,16384,20468,0,0,12,-21846
1564,0.763672,0,-57,-97,69,23052,32767,16384,20468,0,0,12,-21846
1565,0.764160,-5,-66,-119,66,23053,32767,16384,20468,0,0,12,-21846
1566,0.764648,4,-89,-112,61,23054,32767,16384,20468,0,0,12,-21846
1567,0.765137,9,-99,-122,63,23055,32767,16384,20468,0,0,12,-21846
1568,0.765625,-3,-103,-153,66,23056,32767,16384,20468,0,0,12,-21846
1569,0.766113,-7,-116,-171,63,23057,32767,16384,20468,0,0,12,-21846
1570,0.766602,1,-122,-157,61,23058,32767,16384,20468,0,0,12,-21846
1571,0.767090,-9,-119,-156,65,23059,32767,16384,20468,0,0,12,-21846
1572,0.767578,-20,-101,-159,70,23060,32767,16384,20468,0,0,12,-21846
1573,0.768066,-20,-96,-147,65,23061,32767,16384,20468,0,0,12,-21846
1574,0.768555,-30,-103,-123,61,23062,32767,16384,20468,0,0,12,-21846
1575,0.769043,-21,-64,-87,65,23063,32767,16384,20468,0,0,12,-21846
1576,0.769531,-29,-31,-79,66,23064,32767,16384,20468,0,0,12,-21846
1577,0.770020,-19,-21,-45,63,23065,32767,16384,20468,0,0,12,-21846
1578,0.770508,-8,-20,-28,61,23066,32767,16384,20468,0,0,12,-21846
1579,0.770996,-15,-10,-30,66,23067,32767,16384,20468,0,0,12,-21846
1580,0.771484,-27,1,-39,70,23068,32767,16384,20468,0,0,12,-21846
1581,0.771973,-14,7,-14,62,23069,32767,16384,20468,0,0,12,-21846
1582,0.772461,-1,24,24,62,23070,32767,16384,20468,0,0,12,-21846
1583,0.772949,-8,49,38,67,23071,32767,16384,20468,0,0,12,-21846
1584,0.773438,-12,71,47,64,23072,32767,16384,20468,0,0,12,-21846
1585,0.773926,1,77,77,63,23073,32767,16384,20468,0,0,12,-21846
1586,0.774414,4,72,87,61,23074,32767,16384,20468,0,0,12,-21846
1587,0.774902,-7,83,80,68,23075,32767,16384,20468,0,0,12,-21846
1588,0.775391,-14,99,85,66,23076,32767,16384,20468,0,0,12,-21846
1589,0.775879,3,103,112,59,23077,32767,16384,20468,0,0,12,-21846
1590,0.776367,2,104,118,63,23078,32767,16384,20468,0,0,12,-21846
1591,0.776855,6,114,110,66,23079,32767,16384,20468,0,0,12,-21846
1592,0.777344,7,104,94,64,23080,32767,16384,20468,0,0,12,-21846
1593,0.777832,22,86,96,61,23081,32767,16384,20468,0,0,12,-21846
1594,0.778320,20,72,85,64,23082,32767,16384,20468,0,0,12,-21846
1595,0.778809,8,62,49,67,23083,32767,16384,20468,0,0,12,-21846
1596,0.779297,16,37,21,64,23084,32767,16384,20468,0,0,12,-21846
1597,0.779785,27,15,18,60,23085,32767,16384,20468,0,0,12,-21846
1598,0.780273,24,13,11,63,23086,32767,16384,20468,0,0,12,-21846
1599,0.780762,9,20,-5,67,23087,32767,16384,20468,0,0,12,-21846
1600,0.781250,9,16,-4,63,23088,32767,16384,20468,0,0,12,-21846
1601,0.781738,19,3,5,61,23089,32767,16384,20468,0,0,12,-21846
1602,0.782227,15,-4,-15,66,23090,32767,16384,20468,0,0,12,-21846
1603,0.782715,3,-15,-51,66,23091,32767,16384,20468,0,0,12,-21846
1604,0.783203,-2,-46,-77,62,23092,32767,16384,20468,0,0,12,-21846
1605,0.783691,0,-77,-89,60,23093,32767,16384,20468,0,0,12,-21846
1606,0.784180,-16,-85,-114,66,23094,32767,16384,20468,0,0,12,-21846
1607,0.784668,-22,-86,-135,67,23095,32767,16384,20468,0,0,12,-21846
1608,0.785156,-4,-95,-133,62,23096,32767,16384,20468,0,0,12,-21846
1609,0.785645,2,-114,-140,62,23097,32767,16384,20468,0,0,12,-21846
1610,0.786133,-6,-117,-169,67,23098,32767,16384,20468,0,0,12,-21846
1611,0.786621,-17,-116,-180,66,23099,32767,16384,20468,0,0,12,-21846
1612,0.787109,-7,-113,-151,61,23100,32767,16384,20468,0,0,12,-21846
1613,0.787598,-6,-101,-127,63,23101,32767,16384,20468,0,0,12,-21846
1614,0.788086,-25,-84,-125,66,23102,32767,16384,20468,0,0,12,-21846
1615,0.788574,-36,-62,-115,64,23103,32767,16384,20468,0,0,12,-21846
1616,0.789062,-21,-46,-71,61,23104,32767,16384,20468,0,0,12,-21846
1617,0.789551,-18,-27,-40,63,23105,32767,16384,20468,0,0,12,-21846
1618,0.790039,-34,-7,-42,67,23106,32767,16384,20468,0,0,12,-21846
1619,0.790527,-32,-3,-44,64,23107,32767,16384,20468,0,0,12,-21846
1620,0.791016,-14,-4,-19,61,23108,32767,16384,20468,0,0,12,-21846
1621,0.791504,-17,-3,-10,64,23109,32767,16384,20468,0,0,12,-21846
1622,0.791992,-21,13,-17,69,23110,32767,16384,20468,0,0,12,-21846
1623,0.792480,-28,19,0,63,23111,32767,16384,20468,0,0,12,-21846
1624,0.792969,-25,30,42,60,23112,32767,16384,20468,0,0,12,-21846
1625,0.793457,-15,61,60,64,23113,32767,16384,20468,0,0,12,-21846
1626,0.793945,-32,75,49,65,23114,32767,16384,20468,0,0,12,-21846
1627,0.794434,-19,78,66,62,23115,32767,16384,20468,0,0,12,-21846
1628,0.794922,1,83,98,62,23116,32767,16384,20468,0,0,12,-21846
1629,0.795410,-6,95,109,65,23117,32767,16384,20468,0,0,12,-21846
1630,0.795898,-24,113,105,68,23118,32767,16384,20468,0,0,12,-21846
1631,0.796387,-12,115,121,62,23119,32767,16384,20468,0,0,12,-21846
1632,0.796875,-3,103,129,62,23120,32767,16384,20468,0,0,12,-21846
1633,0.797363,-2,98,108,66,23121,32767,16384,20468,0,0,12,-21846
1634,0.797852,-8,95,81,63,23122,32767,16384,20468,0,0,12,-21846
1635,0.798340,3,79,81,61,23123,32767,16384,20468,0,0,12,-21846
1636,0.798828,22,56,72,62,23124,32767,16384,20468,0,0,12,-21846
1637,0.799316,12,39,31,68,23125,32767,16384,20468,0,0,12,-21846
1638,0.799805,-1,22,-2,67,23126,32767,16384,20468,0,0,12,-21846
1639,0.800293,14,23,12,61,23127,32767,16384,20468,0,0,12,-21846
1640,0.800781,10,18,20,63,23128,32767,16384,20468,0,0,12,-21846
1641,0.801270,-9,12,-4,66,23129,32767,16384,20468,0,0,12,-21846
1642,0.801758,-11,12,-16,63,23130,32767,16384,20468,0,0,12,-21846
1643,0.802246,2,-13,-27,61,23131,32767,16384,20468,0,0,12,-21846
1644,0.802734,16,-29,-41,63,23132,32767,16384,20468,0,0,12,-21846
1645,0.803223,2,-47,-87,69,23133,32767,16384,20468,0,0,12,-21846
1646,0.803711,17,-61,-106,65,23134,32767,16384,20468,0,0,12,-21846
1647,0.804199,26,-82,-101,60,23135,32767,16384,20468,0,0,12,-21846
1648,0.804688,22,-86,-109,64,23136,32767,16384,20468,0,0,12,-21846
1649,0.805176,4,-90,-138,66,23137,32767,16384,20468,0,0,12,-21846
1650,0.805664,0,-107,-154,63,23138,32767,16384,20468,0,0,12,-21846
1651,0.806152,7,-123,-153,61,23139,32767,16384,20468,0,0,12,-21846
1652,0.806641,2,-115,-152,64,23140,32767,16384,20468,0,0,12,-21846
1653,0.807129,-21,-106,-166,69,23141,32767,16384,20468,0,0,12,-21846
1654,0.807617,-21,-100,-145,61,23142,32767,16384,20468,0,0,12,-21846
1655,0.808105,-12,-94,-116,61,23143,32767,16384,20468,0,0,12,-21846
1656,0.808594,-22,-68,-98,65,23144,32767,16384,20468,0,0,12,-21846
1657,0.809082,-30,-34,-86,63,23145,32767,16384,20468,0,0,12,-21846
1658,0.809570,-34,-25,-59,63,23146,32767,16384,20468,0,0,12,-21846
1659,0.810059,-26,-22,-33,61,23147,32767,16384,20468,0,0,12,-21846
1660,0.810547,-28,-15,-41,68,23148,32767,16384,20468,0,0,12,-21846
1661,0.811035,-40,-7,-50,67,23149,32767,16384,20468,0,0,12,-21846
1662,0.811523,-26,0,-23,61,23150,32767,16384,20468,0,0,12,-21846
1663,0.812012,-23,11,7,62,23151,32767,16384,20468,0,0,12,-21846
1664,0.812500,-35,34,16,66,23152,32767,16384,20468,0,0,12,-21846
1665,0.812988,-44,55,30,67,23153,32767,16384,20468,0,0,12,-21846
1666,0.813477,-35,59,60,61,23154,32767,16384,20468,0,0,12,-21846
1667,0.813965,-27,62,77,62,23155,32767,16384,20468,0,0,12,-21846
1668,0.814453,-41,74,67,69,23156,32767,16384,20468,0,0,12,-21846
1669,0.814941,-41,89,75,65,23157,32767,16384,20468,0,0,12,-21846
1670,0.815430,-19,99,115,60,23158,32767,16384,20468,0,0,12,-21846
1671,0.815918,-8,114,136,63,23159,32767,16384,20468,0,0,12,-21846
1672,0.816406,-22,113,113,65,23160,32767,16384,20468,0,0,12,-21846
1673,0.816895,-19,108,101,63,23161,32767,16384,20468,0,0,12,-21846
1674,0.817383,-20,80,99,61,23162,32767,16384,20468,0,0,12,-21846
1675,0.817871,-15,77,90,64,23163,32767,16384,20468,0,0,12,-21846
1676,0.818359,-23,70,51,68,23164,32767,16384,20468,0,0,12,-21846
1677,0.818848,-11,47,32,63,23165,32767,16384,20468,0,0,12,-21846
1678,0.819336,10,18,26,60,23166,32767,16384,20468,0,0,12,-21846
1679,0.819824,18,7,12,65,23167,32767,16384,20468,0,0,12,-21846
1680,0.820312,12,21,-4,65,23168,32767,16384,20468,0,0,12,-21846
1681,0.820801,28,24,9,62,23169,32767,16384,20468,0,0,12,-21846
1682,0.821289,55,23,28,60,23170,32767,16384,20468,0,0,12,-21846
1683,0.821777,52,15,3,68,23171,32767,16384,20468,0,0,12,-21846
1684,0.822266,43,0,-34,68,23172,32767,16384,20468,0,0,12,-21846
1685,0.822754,39,-27,-48,61,23173,32767,16384,20468,0,0,12,-21846
1686,0.823242,31,-55,-62,62,23174,32767,16384,20468,0,0,12,-21846
1687,0.823730,7,-76,-102,65,23175,32767,16384,20468,0,0,12,-21846
1688,0.824219,-12,-81,-129,64,23176,32767,16384,20468,0,0,12,-21846
1689,0.824707,0,-93,-122,62,23177,32767,16384,20468,0,0,12,-21846
1690,0.825195,5,-113,-133,61,23178,32767,16384,20468,0,0,12,-21846
1691,0.825684,-12,-120,-166,69,23179,32767,16384,20468,0,0,12,-21846
1692,0.826172,-11,-121,-181,65,23180,32767,16384,20468,0,0,12,-21846
1693,0.826660,1,-118,-154,61,23181,32767,16384,20468,0,0,12,-21846
1694,0.827148,-2,-109,-134,62,23182,32767,16384,20468,0,0,12,-21846
1695,0.827637,-23,-90,-139,67,23183,32767,16384,20468,0,0,12,-21846
1696,0.828125,-34,-82,-133,65,23184,32767,16384,20468,0,0,12,-21846
1697,0.828613,-22,-67,-90,60,23185,32767,16384,20468,0,0,12,-21846
1698,0.829102,-22,-44,-58,63,23186,32767,16384,20468,0,0,12,-21846
1699,0.829590,-29,-16,-54,69,23187,32767,16384,20468,0,0,12,-21846
1700,0.830078,-25,-9,-35,64,23188,32767,16384,20468,0,0,12,-21846
1701,0.830566,-11,-11,-21,61,23189,32767,16384,20468,0,0,12,-21846
1702,0.831055,-10,-5,-14,65,23190,32767,16384,20468,0,0,12,-21846
1703,0.831543,-20,12,-17,65,23191,32767,16384,20468,0,0,12,-21846
1704,0.832031,-16,24,-1,64,23192,32767,16384,20468,0,0,12,-21846
1705,0.832520,-4,36,43,61,23193,32767,16384,20468,0,0,12,-21846
1706,0.833008,-18,44,49,66,23194,32767,16384,20468,0,0,12,-21846
1707,0.833496,-24,72,52,67,23195,32767,16384,20468,0,0,12,-21846
1708,0.833984,-6,77,69,61,23196,32767,16384,20468,0,0,12,-21846
1709,0.834473,15,76,95,62,23197,32767,16384,20468,0,0,12,-21846
1710,0.834961,12,102,103,65,23198,32767,16384,20468,0,0,12,-21846
1711,0.835449,6,121,109,66,23199,32767,16384,20468,0,0,12,-21846
1712,0.835938,11,119,132,62,23200,32767,16384,20468,0,0,12,-21846
1713,0.836426,17,113,141,62,23201,32767,16384,20468,0,0,12,-21846
1714,0.836914,5,107,115,68,23202,32767,16384,20468,0,0,12,-21846
1715,0.837402,-5,99,84,67,23203,32767,16384,20468,0,0,12,-21846
1716,0.837891,9,83,93,61,23204,32767,16384,20468,0,0,12,-21846
1717,0.838379,18,66,83,62,23205,32767,16384,20468,0,0,12,-21846
1718,0.838867,5,53,47,66,23206,32767,16384,20468,0,0,12,-21846
1719,0.839355,1,32,17,65,23207,32767,16384,20468,0,0,12,-21846
1720,0.839844,5,11,10,60,23208,32767,16384,20468,0,0,12,-21846
1721,0.840332,15,3,11,63,23209,32767,16384,20468,0,0,12,-21846
1722,0.840820,-5,17,-7,68,23210,32767,16384,20468,0,0,12,-21846
1723,0.841309,-16,7,-26,64,23211,32767,16384,20468,0,0,12,-21846
1724,0.841797,10,-1,-10,62,23212,32767,16384,20468,0,0,12,-21846
1725,0.842285,18,-16,-27,64,23213,32767,16384,20468,0,0,12,-21846
1726,0.842773,11,-28,-62,68,23214,32767,16384,20468,0,0,12,-21846
1727,0.843262,9,-49,-81,64,23215,32767,16384,20468,0,0,12,-21846
1728,0.843750,21,-72,-89,59,23216,32767,16384,20468,0,0,12,-21846
1729,0.844238,11,-80,-103,65,23217,32767,16384,20468,0,0,12,-21846
1730,0.844727,-5,-79,-127,66,23218,32767,16384,20468,0,0,12,-21846
1731,0.845215,-9,-96,-138,63,23219,32767,16384,20468,0,0,12,-21846
1732,0.845703,-8,-120,-140,62,23220,32767,16384,20468,0,0,12,-21846
1733,0.846191,-20,-119,-151,64,23221,32767,16384,20468,0,0,12,-21846
1734,0.846680,-36,-111,-168,69,23222,32767,16384,20468,0,0,12,-21846
1735,0.847168,-27,-107,-145,62,23223,32767,16384,20468,0,0,12,-21846
1736,0.847656,-22,-107,-129,61,23224,32767,16384,20468,0,0,12,-21846
1737,0.848145,-39,-98,-135,66,23225,32767,16384,20468,0,0,12,-21846
1738,0.848633,-46,-70,-119,66,23226,32767,16384,20468,0,0,12,-21846
1739,0.849121,-32,-48,-72,63,23227,32767,16384,20468,0,0,12,-21846
1740,0.849609,-20,-22,-33,61,23228,32767,16384,20468,0,0,12,-21846
1741,0.850098,-28,-13,-37,68,23229,32767,16384,20468,0,0,12,-21846
1742,0.850586,-36,-15,-47,67,23230,32767,16384,20468,0,0,12,-21846
1743,0.851074,-17,-14,-21,62,23231,32767,16384,20468,0,0,12,-21846
1744,0.851562,-10,0,2,63,23232,32767,16384,20468,0,0,12,-21846
1745,0.852051,-24,27,0,66,23233,32767,16384,20468,0,0,12,-21846
1746,0.852539,-29,48,21,64,23234,32767,16384,20468,0,0,12,-21846
1747,0.853027,-18,52,57,60,23235,32767,16384,20468,0,0,12,-21846
1748,0.853516,-17,60,74,63,23236,32767,16384,20468,0,0,12,-21846
1749,0.854004,-24,69,60,70,23237,32767,16384,20468,0,0,12,-21846
1750,0.854492,-38,67,47,65,23238,32767,16384,20468,0,0,12,-21846
1751,0.854980,-28,69,82,60,23239,32767,16384,20468,0,0,12,-21846
1752,0.855469,-19,83,101,64,23240,32767,16384,20468,0,0,12,-21846
1753,0.855957,-22,105,96,66,23241,32767,16384,20468,0,0,12,-21846
1754,0.856445,-14,109,108,64,23242,32767,16384,20468,0,0,12,-21846
1755,0.856934,2,97,125,61,23243,32767,16384,20468,0,0,12,-21846
1756,0.857422,5,99,112,65,23244,32767,16384,20468,0,0,12,-21846
1757,0.857910,5,102,87,71,23245,32767,16384,20468,0,0,12,-21846
1758,0.858398,17,77,71,62,23246,32767,16384,20468,0,0,12,-21846
1759,0.858887,26,43,57,61,23247,32767,16384,20468,0,0,12,-21846
1760,0.859375,15,26,23,64,23248,32767,16384,20468,0,0,12,-21846
1761,0.859863,2,23,-12,64,23249,32767,16384,20468,0,0,12,-21846
1762,0.860352,17,21,4,62,23250,32767,16384,20468,0,0,12,-21846
1763,0.860840,26,14,21,60,23251,32767,16384,20468,0,0,12,-21846
1764,0.861328,17,13,-2,67,23252,32767,16384,20468,0,0,12,-21846
1765,0.861816,4,3,-29,67,23253,32767,16384,20468,0,0,12,-21846
1766,0.862305,13,-18,-36,60,23254,32767,16384,20468,0,0,12,-21846
1767,0.862793,10,-49,-56,62,23255,32767,16384,20468,0,0,12,-21846
1768,0.863281,7,-60,-91,65,23256,32767,16384,20468,0,0,12,-21846
1769,0.863770,-6,-71,-118,65,23257,32767,16384,20468,0,0,12,-21846
1770,0.864258,1,-81,-106,61,23258,32767,16384,20468,0,0,12,-21846
1771,0.864746,0,-94,-116,62,23259,32767,16384,20468,0,0,12,-21846
1772,0.865234,-14,-100,-148,69,23260,32767,16384,20468,0,0,12,-21846
1773,0.865723,-21,-114,-170,66,23261,32767,16384,20468,0,0,12,-21846
1774,0.866211,-16,-121,-156,61,23262,32767,16384,20468,0,0,12,-21846
1775,0.866699,-15,-113,-146,63,23263,32767,16384,20468,0,0,12,-21846
1776,0.867188,-26,-95,-150,66,23264,32767,16384,20468,0,0,12,-21846
1777,0.867676,-27,-92,-142,64,23265,32767,16384,20468,0,0,12,-21846
1778,0.868164,-11,-89,-114,61,23266,32767,16384,20468,0,0,12,-21846
1779,0.868652,-9,-60,-86,63,23267,32767,16384,20468,0,0,12,-21846
1780,0.869141,-39,-38,-83,70,23268,32767,16384,20468,0,0,12,-21846
1781,0.869629,-35,-24,-55,63,23269,32767,16384,20468,0,0,12,-21846
1782,0.870117,-23,-26,-35,60,23270,32767,16384,20468,0,0,12,-21846
1783,0.870605,-19,-15,-38,66,23271,32767,16384,20468,0,0,12,-21846
1784,0.871094,-24,6,-36,65,23272,32767,16384,20468,0,0,12,-21846
1785,0.871582,-23,11,-10,61,23273,32767,16384,20468,0,0,12,-21846
1786,0.872070,-13,26,26,61,23274,32767,16384,20468,0,0,12,-21846
1787,0.872559,-16,47,40,66,23275,32767,16384,20468,0,0,12,-21846
1788,0.873047,-23,61,45,69,23276,32767,16384,20468,0,0,12,-21846
1789,0.873535,-14,66,66,62,23277,32767,16384,20468,0,0,12,-21846
1790,0.874023,4,74,85,62,23278,32767,16384,20468,0,0,12,-21846
1791,0.874512,2,83,80,65,23279,32767,16384,20468,0,0,12,-21846
1792,0.875000,-5,101,86,65,23280,32767,16384,20468,0,0,12,-21846
1793,0.875488,10,109,121,64,23281,32767,16384,20468,0,0,12,-21846
1794,0.875977,10,108,133,62,23282,32767,16384,20468,0,0,12,-21846
1795,0.876465,-12,104,105,70,23283,32767,16384,20468,0,0,12,-21846
1796,0.876953,-5,101,93,64,23284,32767,16384,20468,0,0,12,-21846
1797,0.877441,14,86,96,61,23285,32767,16384,20468,0,0,12,-21846
1798,0.877930,20,76,95,63,23286,32767,16384,20468,0,0,12,-21846
1799,0.878418,7,67,59,66,23287,32767,16384,20468,0,0,12,-21846
1800,0.878906,1,48,26,65,23288,32767,16384,20468,0,0,12,-21846
1801,0.879395,17,23,25,60,23289,32767,16384,20468,0,0,12,-21846
1802,0.879883,23,21,22,63,23290,32767,16384,20468,0,0,12,-21846
1803,0.880371,16,31,3,68,23291,32767,16384,20468,0,0,12,-21846
1804,0.880859,13,14,-8,66,23292,32767,16384,20468,0,0,12,-21846
1805,0.881348,23,-3,0,60,23293,32767,16384,20468,0,0,12,-21846
1806,0.881836,15,-15,-22,63,23294,32767,16384,20468,0,0,12,-21846
1807,0.882324,3,-22,-65,67,23295,32767,16384,20468,0,0,12,-21846
1808,0.882812,6,-44,-81,64,23296,32767,16384,20468,0,0,12,-21846
1809,0.883301,17,-72,-91,61,23297,32767,16384,20468,0,0,12,-21846
1810,0.883789,4,-88,-119,65,23298,32767,16384,20468,0,0,12,-21846
1811,0.884277,-18,-91,-145,68,23299,32767,16384,20468,0,0,12,-21846
1812,0.884766,6,-99,-140,61,23300,32767,16384,20468,0,0,12,-21846
1813,0.885254,12,-120,-143,61,23301,32767,16384,20468,0,0,12,-21846
1814,0.885742,3,-123,-170,65,23302,32767,16384,20468,0,0,12,-21846
1815,0.886230,-8,-119,-180,66,23303,32767,16384,20468,0,0,12,-21846
1816,0.886719,-8,-115,-159,63,23304,32767,16384,20468,0,0,12,-21846
1817,0.887207,-6,-108,-134,63,23305,32767,16384,20468,0,0,12,-21846
1818,0.887695,-22,-93,-133,67,23306,32767,16384,20468,0,0,12,-21846
1819,0.888184,-47,-76,-130,65,23307,32767,16384,20468,0,0,12,-21846
1820,0.888672,-38,-56,-80,61,23308,32767,16384,20468,0,0,12,-21846
1821,0.889160,-29,-33,-40,61,23309,32767,16384,20468,0,0,12,-21846
1822,0.889648,-38,-14,-36,67,23310,32767,16384,20468,0,0,12,-21846
1823,0.890137,-38,-11,-44,65,23311,32767,16384,20468,0,0,12,-21846
1824,0.890625,-21,-12,-21,61,23312,32767,16384,20468,0,0,12,-21846
1825,0.891113,-19,-2,-9,63,23313,32767,16384,20468,0,0,12,-21846
1826,0.891602,-25,21,-6,69,23314,32767,16384,20468,0,0,12,-21846
1827,0.892090,-33,34,9,64,23315,32767,16384,20468,0,0,12,-21846
1828,0.892578,-15,51,51,61,23316,32767,16384,20468,0,0,12,-21846
1829,0.893066,-10,61,64,64,23317,32767,16384,20468,0,0,12,-21846
1830,0.893555,-27,74,51,68,23318,32767,16384,20468,0,0,12,-21846
1831,0.894043,-7,83,72,63,23319,32767,16384,20468,0,0,12,-21846
1832,0.894531,7,84,96,61,23320,32767,16384,20468,0,0,12,-21846
1833,0.895020,9,100,109,65,23321,32767,16384,20468,0,0,12,-21846
